Sample_Index	Signal_[mV]
0	-983.367
1	-982.341
2	-981.234
3	-980.041
4	-978.757
5	-977.376
6	-975.897
7	-974.326
8	-972.675
9	-970.962
10	-969.209
11	-967.443
12	-965.686
13	-963.95
14	-962.238
15	-960.542
16	-958.859
17	-957.202
18	-955.602
19	-954.105
20	-952.766
21	-951.645
22	-950.799
23	-950.275
24	-950.102
25	-950.285
26	-950.81
27	-951.647
28	-952.765
29	-954.139
30	-955.75
31	-957.585
32	-959.632
33	-961.881
34	-964.323
35	-966.948
36	-969.741
37	-972.675
38	-975.716
39	-978.826
40	-981.967
41	-985.107
42	-988.219
43	-991.276
44	-994.245
45	-997.095
46	-999.8
47	-1002.34
48	-1004.7
49	-1006.85
50	-1008.78
51	-1010.48
52	-1011.97
53	-1013.24
54	-1014.34
55	-1015.28
56	-1016.1
57	-1016.83
58	-1017.51
59	-1018.16
60	-1018.8
61	-1019.43
62	-1020.04
63	-1020.61
64	-1021.09
65	-1021.44
66	-1021.66
67	-1021.74
68	-1021.69
69	-1021.55
70	-1021.32
71	-1021.03
72	-1020.68
73	-1020.3
74	-1019.88
75	-1019.45
76	-1019
77	-1018.54
78	-1018.08
79	-1017.61
80	-1017.14
81	-1016.67
82	-1016.2
83	-1015.72
84	-1015.26
85	-1014.83
86	-1014.44
87	-1014.11
88	-1013.86
89	-1013.7
90	-1013.61
91	-1013.57
92	-1013.55
93	-1013.54
94	-1013.51
95	-1013.44
96	-1013.3
97	-1013.08
98	-1012.73
99	-1012.25
100	-1011.64
101	-1010.91
102	-1010.08
103	-1009.16
104	-1008.17
105	-1007.13
106	-1006.07
107	-1005
108	-1003.93
109	-1002.89
110	-1001.87
111	-1000.86
112	-999.87
113	-998.867
114	-997.827
115	-996.697
116	-995.395
117	-993.807
118	-991.798
119	-989.217
120	-985.906
121	-981.698
122	-976.433
123	-969.959
124	-962.147
125	-952.905
126	-942.179
127	-929.958
128	-916.272
129	-901.184
130	-884.789
131	-867.204
132	-848.566
133	-829.033
134	-808.783
135	-788.024
136	-766.989
137	-745.93
138	-725.115
139	-704.824
140	-685.34
141	-666.952
142	-649.953
143	-634.628
144	-621.246
145	-610.043
146	-601.22
147	-594.934
148	-591.304
150	-592.297
151	-596.965
152	-604.371
153	-614.434
154	-627.033
155	-642.019
156	-659.207
157	-678.372
158	-699.257
159	-721.575
160	-745.026
161	-769.301
162	-794.089
163	-819.076
164	-843.958
165	-868.437
166	-892.234
167	-915.09
168	-936.774
169	-957.091
170	-975.885
171	-993.034
172	-1008.45
173	-1022.05
174	-1033.83
175	-1043.77
176	-1051.9
177	-1058.28
178	-1062.99
179	-1066.13
180	-1067.79
181	-1068.13
182	-1067.29
183	-1065.41
184	-1062.66
185	-1059.14
186	-1054.98
187	-1050.29
188	-1045.16
189	-1039.69
190	-1033.93
191	-1027.96
192	-1021.85
193	-1015.67
194	-1009.47
195	-1003.34
196	-997.317
197	-991.452
198	-985.782
199	-980.332
200	-975.12
201	-970.144
202	-965.39
203	-960.83
204	-956.438
205	-952.195
206	-948.089
207	-944.112
208	-940.251
209	-936.492
210	-932.826
211	-929.257
212	-925.792
213	-922.445
214	-919.228
215	-916.151
216	-913.213
217	-910.412
218	-907.743
219	-905.214
220	-902.837
221	-900.63
222	-898.613
223	-896.799
224	-895.196
225	-893.8
226	-892.597
227	-891.563
228	-890.668
229	-889.876
230	-889.16
231	-888.499
232	-887.882
233	-887.302
234	-886.754
235	-886.234
236	-885.744
237	-885.278
238	-884.817
239	-884.339
240	-883.825
241	-883.271
242	-882.685
243	-882.079
244	-881.461
245	-880.83
246	-880.177
247	-879.49
248	-878.749
249	-877.938
250	-877.042
251	-876.056
252	-874.986
253	-873.846
254	-872.654
255	-871.429
256	-870.188
257	-868.946
258	-867.713
259	-866.501
260	-865.319
261	-864.175
262	-863.072
263	-862.002
264	-860.945
265	-859.878
266	-858.782
267	-857.651
268	-856.49
269	-855.308
270	-854.106
271	-852.885
272	-851.634
273	-850.338
274	-848.979
275	-847.542
276	-846.028
277	-844.445
278	-842.805
279	-841.112
280	-839.373
281	-837.598
282	-835.8
283	-833.991
284	-832.168
285	-830.32
286	-828.426
287	-826.463
288	-824.408
289	-822.24
290	-819.935
291	-817.471
292	-814.825
293	-811.98
294	-808.931
295	-805.687
296	-802.268
297	-798.704
298	-795.025
299	-791.258
300	-787.43
301	-783.572
302	-779.715
303	-775.902
304	-772.175
305	-768.568
306	-765.105
307	-761.793
308	-758.632
309	-755.612
310	-752.711
311	-749.9
312	-747.143
313	-744.409
314	-741.664
315	-738.872
316	-735.992
317	-732.979
318	-729.792
319	-726.396
320	-722.774
321	-718.93
322	-714.891
323	-710.696
324	-706.392
325	-702.018
326	-697.6
327	-693.146
328	-688.66
329	-684.139
330	-679.574
331	-674.949
332	-670.242
333	-665.439
334	-660.546
335	-655.58
336	-650.565
337	-645.522
338	-640.464
339	-635.398
340	-630.329
341	-625.257
342	-620.186
343	-615.125
344	-610.095
345	-605.124
346	-600.241
347	-595.473
348	-590.837
349	-586.346
350	-582.008
351	-577.834
352	-573.828
353	-569.995
354	-566.336
355	-562.858
356	-559.575
357	-556.513
358	-553.696
359	-551.148
360	-548.882
361	-546.907
362	-545.23
363	-543.863
364	-542.819
365	-542.108
366	-541.732
367	-541.688
368	-541.966
369	-542.558
370	-543.457
371	-544.652
372	-546.13
373	-547.873
374	-549.866
375	-552.102
376	-554.574
377	-557.276
378	-560.199
379	-563.334
380	-566.672
381	-570.203
382	-573.922
383	-577.826
384	-581.923
385	-586.222
386	-590.745
387	-595.523
388	-600.598
389	-606.002
390	-611.758
391	-617.877
392	-624.355
393	-631.179
394	-638.324
395	-645.753
396	-653.42
397	-661.273
398	-669.249
399	-677.289
400	-685.334
401	-693.343
402	-701.286
403	-709.143
404	-716.895
405	-724.511
406	-731.949
407	-739.164
408	-746.119
409	-752.785
410	-759.152
411	-765.227
412	-771.029
413	-776.58
414	-781.897
415	-786.995
416	-791.888
417	-796.587
418	-801.102
419	-805.45
420	-809.659
421	-813.764
422	-817.799
423	-821.792
424	-825.769
425	-829.746
426	-833.737
427	-837.74
428	-841.742
429	-845.722
430	-849.656
431	-853.535
432	-857.365
433	-861.156
434	-864.921
435	-868.653
436	-872.332
437	-875.927
438	-879.406
439	-882.743
440	-885.926
441	-888.949
442	-891.817
443	-894.541
444	-897.131
445	-899.592
446	-901.923
447	-904.12
448	-906.176
449	-908.086
450	-909.842
451	-911.431
452	-912.841
453	-914.054
454	-915.051
455	-915.812
456	-916.329
457	-916.605
458	-916.657
459	-916.501
460	-916.159
461	-915.658
462	-915.035
463	-914.33
464	-913.591
465	-912.858
466	-912.162
467	-911.516
468	-910.92
469	-910.369
470	-909.862
471	-909.395
472	-908.964
473	-908.562
474	-908.182
475	-907.819
476	-907.472
477	-907.147
478	-906.852
479	-906.595
480	-906.381
481	-906.215
482	-906.096
483	-906.021
484	-905.985
485	-905.991
486	-906.052
487	-906.188
488	-906.417
489	-906.741
490	-907.139
491	-907.565
492	-907.963
493	-908.275
494	-908.451
495	-908.447
496	-908.234
497	-907.801
498	-907.148
499	-906.281
500	-905.208
501	-903.949
502	-902.533
503	-900.997
504	-899.374
505	-897.691
506	-895.973
507	-894.249
508	-892.554
509	-890.923
510	-889.393
511	-887.988
512	-886.721
513	-885.594
514	-884.595
515	-883.708
516	-882.919
517	-882.22
518	-881.6
519	-881.05
520	-880.552
521	-880.085
522	-879.623
523	-879.147
524	-878.644
525	-878.107
526	-877.535
527	-876.929
528	-876.283
529	-875.594
530	-874.856
531	-874.076
532	-873.268
533	-872.456
534	-871.668
535	-870.925
536	-870.236
537	-869.6
538	-869.01
539	-868.464
540	-867.959
541	-867.493
542	-867.063
543	-866.668
544	-866.314
545	-866.004
546	-865.744
547	-865.539
548	-865.388
549	-865.288
550	-865.232
551	-865.213
552	-865.225
553	-865.262
554	-865.317
555	-865.382
556	-865.447
557	-865.504
558	-865.544
559	-865.557
560	-865.53
561	-865.442
562	-865.269
563	-864.995
564	-864.613
565	-864.132
566	-863.571
567	-862.956
568	-862.309
569	-861.655
570	-861.012
571	-860.394
572	-859.817
573	-859.295
574	-858.845
575	-858.484
576	-858.224
577	-858.063
578	-857.982
579	-857.95
580	-857.939
581	-857.923
582	-857.884
583	-857.807
584	-857.679
585	-857.488
586	-857.216
587	-856.846
588	-856.361
589	-855.758
590	-855.046
591	-854.239
592	-853.355
593	-852.418
594	-851.456
595	-850.494
596	-849.547
597	-848.62
598	-847.713
599	-846.821
600	-845.939
601	-845.058
602	-844.166
603	-843.252
604	-842.317
605	-841.377
606	-840.455
607	-839.569
608	-838.729
609	-837.949
610	-837.242
611	-836.628
612	-836.124
613	-835.743
614	-835.49
615	-835.364
616	-835.361
617	-835.475
618	-835.7
619	-836.024
620	-836.444
621	-836.96
622	-837.576
623	-838.293
624	-839.111
625	-840.03
626	-841.045
627	-842.148
628	-843.33
629	-844.576
630	-845.876
631	-847.218
632	-848.588
633	-849.975
634	-851.363
635	-852.737
636	-854.085
637	-855.395
638	-856.66
639	-857.87
640	-859.008
641	-860.05
642	-860.971
643	-861.751
644	-862.385
645	-862.872
646	-863.21
647	-863.401
648	-863.451
649	-863.375
650	-863.197
651	-862.943
652	-862.637
653	-862.302
654	-861.957
655	-861.62
656	-861.303
657	-861.018
658	-860.78
659	-860.598
660	-860.473
661	-860.399
662	-860.366
663	-860.354
664	-860.337
665	-860.281
666	-860.153
667	-859.928
668	-859.598
669	-859.174
670	-858.684
671	-858.163
672	-857.643
673	-857.145
674	-856.671
675	-856.206
676	-855.722
677	-855.193
678	-854.598
679	-853.933
680	-853.214
681	-852.475
682	-851.751
683	-851.071
684	-850.449
685	-849.888
686	-849.384
687	-848.927
688	-848.509
689	-848.12
690	-847.752
691	-847.397
692	-847.052
693	-846.715
694	-846.381
695	-846.036
696	-845.667
697	-845.26
698	-844.804
699	-844.295
700	-843.734
701	-843.126
702	-842.484
703	-841.824
704	-841.172
705	-840.561
706	-840.032
707	-839.628
708	-839.393
709	-839.361
710	-839.551
711	-839.962
712	-840.573
713	-841.344
714	-842.222
715	-843.15
716	-844.073
717	-844.947
718	-845.739
719	-846.427
720	-846.997
721	-847.438
722	-847.74
723	-847.891
724	-847.884
725	-847.715
726	-847.384
727	-846.892
728	-846.245
729	-845.457
730	-844.551
731	-843.545
732	-842.453
733	-841.285
734	-840.057
735	-838.789
736	-837.497
737	-836.191
738	-834.872
739	-833.535
740	-832.176
741	-830.795
742	-829.395
743	-827.984
744	-826.575
745	-825.171
746	-823.771
747	-822.36
748	-820.923
749	-819.447
750	-817.928
751	-816.371
752	-814.789
753	-813.204
754	-811.636
755	-810.104
756	-808.617
757	-807.176
758	-805.776
759	-804.41
760	-803.071
761	-801.759
762	-800.475
763	-799.216
764	-797.97
765	-796.728
766	-795.488
767	-794.262
768	-793.067
769	-791.924
770	-790.841
771	-789.813
772	-788.832
773	-787.886
774	-786.97
775	-786.084
776	-785.231
777	-784.406
778	-783.6
779	-782.797
780	-781.984
781	-781.153
782	-780.297
783	-779.409
784	-778.486
785	-777.531
786	-776.564
787	-775.614
788	-774.728
789	-773.96
790	-773.361
791	-772.975
792	-772.843
793	-773.005
794	-773.494
795	-774.329
796	-775.509
797	-777.007
798	-778.779
799	-780.771
800	-782.936
801	-785.237
802	-787.649
803	-790.164
804	-792.779
805	-795.491
806	-798.291
807	-801.164
808	-804.096
809	-807.07
810	-810.06
811	-813.037
812	-815.965
813	-818.812
814	-821.546
815	-824.143
816	-826.592
817	-828.89
818	-831.037
819	-833.03
820	-834.86
821	-836.526
822	-838.032
823	-839.392
824	-840.623
825	-841.741
826	-842.766
827	-843.71
828	-844.58
829	-845.38
830	-846.112
831	-846.782
832	-847.392
833	-847.95
834	-848.458
835	-848.925
836	-849.36
837	-849.774
838	-850.178
839	-850.573
840	-850.952
841	-851.299
842	-851.594
843	-851.807
844	-851.909
845	-851.868
846	-851.659
847	-851.26
848	-850.661
849	-849.868
850	-848.898
851	-847.771
852	-846.506
853	-845.121
854	-843.646
855	-842.118
856	-840.583
857	-839.086
858	-837.663
859	-836.343
860	-835.142
861	-834.061
862	-833.092
863	-832.23
864	-831.473
865	-830.835
866	-830.336
867	-829.993
868	-829.814
869	-829.786
870	-829.885
871	-830.087
872	-830.369
873	-830.711
874	-831.094
875	-831.495
876	-831.881
877	-832.214
878	-832.446
879	-832.517
880	-832.357
881	-831.892
882	-831.042
883	-829.722
884	-827.84
885	-825.287
886	-821.943
887	-817.676
888	-812.358
889	-805.864
890	-798.089
891	-788.953
892	-778.408
893	-766.444
894	-753.092
895	-738.413
896	-722.498
897	-705.46
898	-687.43
899	-668.558
900	-649.014
901	-628.995
902	-608.726
903	-588.461
904	-568.475
905	-549.058
906	-530.506
907	-513.107
908	-497.141
909	-482.873
910	-470.549
911	-460.389
912	-452.58
913	-447.275
914	-444.588
916	-447.29
917	-452.675
918	-460.678
919	-471.204
920	-484.137
921	-499.343
922	-516.665
923	-535.919
924	-556.884
925	-579.301
926	-602.872
927	-627.276
928	-652.176
929	-677.236
930	-702.13
931	-726.543
932	-750.179
933	-772.768
934	-794.073
935	-813.905
936	-832.122
937	-848.63
938	-863.374
939	-876.328
940	-887.485
941	-896.857
942	-904.469
943	-910.37
944	-914.638
945	-917.385
946	-918.746
947	-918.874
948	-917.926
949	-916.055
950	-913.407
951	-910.125
952	-906.344
953	-902.188
954	-897.766
955	-893.166
956	-888.454
957	-883.671
958	-878.846
959	-874.013
960	-869.212
961	-864.49
962	-859.887
963	-855.424
964	-851.1
965	-846.903
966	-842.823
967	-838.863
968	-835.028
969	-831.331
970	-827.788
971	-824.41
972	-821.2
973	-818.157
974	-815.275
975	-812.551
976	-809.978
977	-807.547
978	-805.249
979	-803.076
980	-801.017
981	-799.057
982	-797.177
983	-795.352
984	-793.564
985	-791.8
986	-790.051
987	-788.306
988	-786.552
989	-784.773
990	-782.961
991	-781.109
992	-779.218
993	-777.289
994	-775.317
995	-773.296
996	-771.221
997	-769.098
998	-766.948
999	-764.802
1000	-762.692
1001	-760.653
1002	-758.706
1003	-756.858
1004	-755.095
1005	-753.392
1006	-751.725
1007	-750.075
1008	-748.427
1009	-746.766
1010	-745.075
1011	-743.339
1012	-741.547
1013	-739.692
1014	-737.77
1015	-735.789
1016	-733.764
1017	-731.72
1018	-729.679
1019	-727.655
1020	-725.652
1021	-723.666
1022	-721.697
1023	-719.75
1024	-717.83
1025	-715.944
1026	-714.097
1027	-712.301
1028	-710.568
1029	-708.914
1030	-707.349
1031	-705.875
1032	-704.486
1033	-703.168
1034	-701.898
1035	-700.651
1036	-699.399
1037	-698.108
1038	-696.743
1039	-695.279
1040	-693.702
1041	-692.01
1042	-690.204
1043	-688.289
1044	-686.276
1045	-684.187
1046	-682.046
1047	-679.876
1048	-677.696
1049	-675.517
1050	-673.348
1051	-671.196
1052	-669.065
1053	-666.954
1054	-664.867
1055	-662.804
1056	-660.758
1057	-658.717
1058	-656.66
1059	-654.561
1060	-652.397
1061	-650.147
1062	-647.791
1063	-645.312
1064	-642.696
1065	-639.934
1066	-637.018
1067	-633.941
1068	-630.705
1069	-627.318
1070	-623.797
1071	-620.156
1072	-616.4
1073	-612.523
1074	-608.513
1075	-604.348
1076	-600.006
1077	-595.471
1078	-590.737
1079	-585.816
1080	-580.732
1081	-575.525
1082	-570.24
1083	-564.924
1084	-559.622
1085	-554.367
1086	-549.178
1087	-544.058
1088	-539.002
1089	-533.992
1090	-529.011
1091	-524.04
1092	-519.061
1093	-514.061
1094	-509.034
1095	-503.98
1096	-498.904
1097	-493.816
1098	-488.728
1099	-483.651
1100	-478.593
1101	-473.557
1102	-468.544
1103	-463.551
1104	-458.571
1105	-453.595
1106	-448.609
1107	-443.605
1108	-438.587
1109	-433.571
1110	-428.59
1111	-423.684
1112	-418.896
1113	-414.268
1114	-409.836
1115	-405.634
1116	-401.685
1117	-398.005
1118	-394.599
1119	-391.462
1120	-388.582
1121	-385.948
1122	-383.548
1123	-381.374
1124	-379.415
1125	-377.66
1126	-376.094
1127	-374.707
1128	-373.498
1129	-372.481
1130	-371.684
1131	-371.137
1132	-370.858
1133	-370.859
1134	-371.144
1135	-371.72
1136	-372.595
1137	-373.774
1138	-375.253
1139	-377.02
1140	-379.059
1141	-381.356
1142	-383.902
1143	-386.696
1144	-389.746
1145	-393.065
1146	-396.659
1147	-400.527
1148	-404.659
1149	-409.036
1150	-413.635
1151	-418.419
1152	-423.352
1153	-428.399
1154	-433.536
1155	-438.754
1156	-444.052
1157	-449.437
1158	-454.921
1159	-460.517
1160	-466.243
1161	-472.116
1162	-478.148
1163	-484.352
1164	-490.731
1165	-497.28
1166	-503.984
1167	-510.822
1168	-517.774
1169	-524.824
1170	-531.961
1171	-539.171
1172	-546.443
1173	-553.763
1174	-561.115
1175	-568.482
1176	-575.837
1177	-583.152
1178	-590.398
1179	-597.539
1180	-604.539
1181	-611.362
1182	-617.975
1183	-624.347
1184	-630.454
1185	-636.28
1186	-641.82
1187	-647.071
1188	-652.029
1189	-656.681
1190	-661.012
1191	-665.02
1192	-668.719
1193	-672.141
1194	-675.319
1195	-678.289
1196	-681.083
1197	-683.732
1198	-686.258
1199	-688.673
1200	-690.984
1201	-693.191
1202	-695.298
1203	-697.314
1204	-699.241
1205	-701.076
1206	-702.805
1207	-704.413
1208	-705.893
1209	-707.244
1210	-708.476
1211	-709.604
1212	-710.655
1213	-711.657
1214	-712.641
1215	-713.632
1216	-714.649
1217	-715.698
1218	-716.777
1219	-717.887
1220	-719.034
1221	-720.232
1222	-721.491
1223	-722.814
1224	-724.197
1225	-725.634
1226	-727.122
1227	-728.667
1228	-730.28
1229	-731.97
1230	-733.738
1231	-735.577
1232	-737.467
1233	-739.383
1234	-741.293
1235	-743.162
1236	-744.946
1237	-746.598
1238	-748.076
1239	-749.346
1240	-750.387
1241	-751.195
1242	-751.779
1243	-752.16
1244	-752.364
1245	-752.407
1246	-752.308
1247	-752.085
1248	-751.764
1249	-751.374
1250	-750.938
1251	-750.466
1252	-749.964
1253	-749.435
1254	-748.887
1255	-748.335
1256	-747.795
1257	-747.28
1258	-746.798
1259	-746.355
1260	-745.953
1261	-745.589
1262	-745.263
1263	-744.978
1264	-744.734
1265	-744.524
1266	-744.334
1267	-744.135
1268	-743.893
1269	-743.567
1270	-743.115
1271	-742.507
1272	-741.729
1273	-740.791
1274	-739.719
1275	-738.554
1276	-737.345
1277	-736.146
1278	-735.011
1279	-733.985
1280	-733.095
1281	-732.353
1282	-731.759
1283	-731.304
1284	-730.969
1285	-730.726
1286	-730.534
1287	-730.349
1288	-730.125
1289	-729.815
1290	-729.38
1291	-728.79
1292	-728.027
1293	-727.098
1294	-726.023
1295	-724.841
1296	-723.591
1297	-722.317
1298	-721.056
1299	-719.844
1300	-718.712
1301	-717.679
1302	-716.753
1303	-715.929
1304	-715.203
1305	-714.572
1306	-714.044
1307	-713.63
1308	-713.343
1309	-713.191
1310	-713.167
1311	-713.25
1312	-713.404
1313	-713.596
1314	-713.806
1315	-714.028
1316	-714.264
1317	-714.518
1318	-714.798
1319	-715.113
1320	-715.472
1321	-715.87
1322	-716.277
1323	-716.646
1324	-716.914
1325	-717.032
1326	-716.966
1327	-716.707
1328	-716.258
1329	-715.64
1330	-714.878
1331	-714.008
1332	-713.063
1333	-712.07
1334	-711.057
1335	-710.053
1336	-709.091
1337	-708.202
1338	-707.41
1339	-706.727
1340	-706.159
1341	-705.711
1342	-705.385
1343	-705.17
1344	-705.047
1345	-704.991
1346	-704.971
1347	-704.962
1348	-704.947
1349	-704.919
1350	-704.881
1351	-704.836
1352	-704.793
1353	-704.758
1354	-704.734
1355	-704.716
1356	-704.684
1357	-704.615
1358	-704.489
1359	-704.289
1360	-704.003
1361	-703.619
1362	-703.135
1363	-702.549
1364	-701.869
1365	-701.105
1366	-700.278
1367	-699.42
1368	-698.568
1369	-697.761
1370	-697.024
1371	-696.371
1372	-695.804
1373	-695.315
1374	-694.898
1375	-694.547
1376	-694.26
1377	-694.035
1378	-693.875
1379	-693.776
1380	-693.733
1381	-693.735
1382	-693.773
1383	-693.84
1384	-693.933
1385	-694.048
1386	-694.184
1387	-694.339
1388	-694.515
1389	-694.713
1390	-694.936
1391	-695.183
1392	-695.458
1393	-695.769
1394	-696.116
1395	-696.494
1396	-696.893
1397	-697.302
1398	-697.711
1399	-698.113
1400	-698.507
1401	-698.89
1402	-699.258
1403	-699.597
1404	-699.895
1405	-700.136
1406	-700.308
1407	-700.401
1408	-700.409
1409	-700.332
1410	-700.172
1411	-699.938
1412	-699.64
1413	-699.284
1414	-698.878
1415	-698.426
1416	-697.941
1417	-697.438
1418	-696.93
1419	-696.429
1420	-695.934
1421	-695.441
1422	-694.95
1423	-694.472
1424	-694.027
1425	-693.641
1426	-693.333
1427	-693.12
1428	-693.009
1429	-693.001
1430	-693.087
1431	-693.251
1432	-693.471
1433	-693.721
1434	-693.968
1435	-694.174
1436	-694.298
1437	-694.299
1438	-694.143
1439	-693.802
1440	-693.25
1441	-692.464
1442	-691.435
1443	-690.172
1444	-688.697
1445	-687.043
1446	-685.253
1447	-683.376
1448	-681.46
1449	-679.552
1450	-677.689
1451	-675.906
1452	-674.24
1453	-672.724
1454	-671.385
1455	-670.236
1456	-669.283
1457	-668.522
1458	-667.942
1459	-667.528
1460	-667.265
1461	-667.138
1462	-667.126
1463	-667.19
1464	-667.274
1465	-667.311
1466	-667.239
1467	-666.999
1468	-666.55
1469	-665.86
1470	-664.917
1471	-663.722
1472	-662.287
1473	-660.634
1474	-658.797
1475	-656.815
1476	-654.722
1477	-652.54
1478	-650.286
1479	-647.971
1480	-645.61
1481	-643.215
1482	-640.79
1483	-638.333
1484	-635.847
1485	-633.337
1486	-630.816
1487	-628.304
1488	-625.825
1489	-623.401
1490	-621.05
1491	-618.782
1492	-616.596
1493	-614.485
1494	-612.443
1495	-610.47
1496	-608.572
1497	-606.759
1498	-605.045
1499	-603.444
1500	-601.972
1501	-600.644
1502	-599.477
1503	-598.487
1504	-597.689
1505	-597.1
1506	-596.737
1507	-596.617
1508	-596.752
1509	-597.151
1510	-597.82
1511	-598.764
1512	-599.994
1513	-601.519
1514	-603.349
1515	-605.483
1516	-607.906
1517	-610.584
1518	-613.473
1519	-616.527
1520	-619.696
1521	-622.93
1522	-626.174
1523	-629.38
1524	-632.509
1525	-635.538
1526	-638.452
1527	-641.241
1528	-643.896
1529	-646.408
1530	-648.77
1531	-650.979
1532	-653.038
1533	-654.951
1534	-656.723
1535	-658.357
1536	-659.853
1537	-661.206
1538	-662.412
1539	-663.474
1540	-664.398
1541	-665.196
1542	-665.885
1543	-666.487
1544	-667.025
1545	-667.512
1546	-667.95
1547	-668.326
1548	-668.636
1549	-668.892
1550	-669.122
1551	-669.359
1552	-669.637
1553	-669.98
1554	-670.405
1555	-670.908
1556	-671.47
1557	-672.064
1558	-672.666
1559	-673.257
1560	-673.823
1561	-674.354
1562	-674.847
1563	-675.304
1564	-675.724
1565	-676.098
1566	-676.406
1567	-676.636
1568	-676.784
1569	-676.856
1570	-676.853
1571	-676.775
1572	-676.616
1573	-676.373
1574	-676.048
1575	-675.645
1576	-675.172
1577	-674.637
1578	-674.049
1579	-673.42
1580	-672.756
1581	-672.06
1582	-671.327
1583	-670.561
1584	-669.773
1585	-668.984
1586	-668.223
1587	-667.521
1588	-666.921
1589	-666.463
1590	-666.181
1591	-666.097
1592	-666.223
1593	-666.56
1594	-667.097
1595	-667.815
1596	-668.679
1597	-669.643
1598	-670.63
1599	-671.543
1600	-672.265
1601	-672.667
1602	-672.623
1603	-672.012
1604	-670.717
1605	-668.624
1606	-665.616
1607	-661.567
1608	-656.345
1609	-649.817
1610	-641.865
1611	-632.393
1612	-621.336
1613	-608.665
1614	-594.387
1615	-578.547
1616	-561.217
1617	-542.51
1618	-522.573
1619	-501.582
1620	-479.735
1621	-457.248
1622	-434.367
1623	-411.366
1624	-388.538
1625	-366.187
1626	-344.616
1627	-324.12
1628	-304.998
1629	-287.549
1630	-272.067
1631	-258.828
1632	-248.067
1633	-239.973
1634	-234.682
1635	-232.279
1637	-236.259
1638	-242.606
1639	-251.776
1640	-263.665
1641	-278.139
1642	-295.025
1643	-314.109
1644	-335.132
1645	-357.798
1646	-381.791
1647	-406.778
1648	-432.421
1649	-458.386
1650	-484.347
1651	-509.988
1652	-535.009
1653	-559.128
1654	-582.083
1655	-603.639
1656	-623.598
1657	-641.809
1658	-658.179
1659	-672.666
1660	-685.268
1661	-696.01
1662	-704.94
1663	-712.128
1664	-717.661
1665	-721.644
1666	-724.2
1667	-725.468
1668	-725.592
1669	-724.72
1670	-722.991
1671	-720.534
1672	-717.465
1673	-713.887
1674	-709.892
1675	-705.566
1676	-700.984
1677	-696.215
1678	-691.314
1679	-686.328
1680	-681.301
1681	-676.268
1682	-671.26
1683	-666.299
1684	-661.399
1685	-656.565
1686	-651.791
1687	-647.066
1688	-642.38
1689	-637.73
1690	-633.121
1691	-628.57
1692	-624.094
1693	-619.711
1694	-615.441
1695	-611.308
1696	-607.333
1697	-603.531
1698	-599.895
1699	-596.41
1700	-593.058
1701	-589.829
1702	-586.722
1703	-583.744
1704	-580.904
1705	-578.214
1706	-575.685
1707	-573.331
1708	-571.163
1709	-569.19
1710	-567.411
1711	-565.823
1712	-564.413
1713	-563.169
1714	-562.081
1715	-561.146
1716	-560.366
1717	-559.744
1718	-559.277
1719	-558.951
1720	-558.736
1721	-558.586
1722	-558.453
1723	-558.298
1724	-558.085
1725	-557.78
1726	-557.355
1727	-556.784
1728	-556.048
1729	-555.137
1730	-554.039
1731	-552.75
1732	-551.27
1733	-549.607
1734	-547.778
1735	-545.811
1736	-543.737
1737	-541.596
1738	-539.429
1739	-537.272
1740	-535.155
1741	-533.098
1742	-531.109
1743	-529.192
1744	-527.341
1745	-525.545
1746	-523.789
1747	-522.055
1748	-520.328
1749	-518.596
1750	-516.851
1751	-515.083
1752	-513.282
1753	-511.436
1754	-509.537
1755	-507.578
1756	-505.562
1757	-503.499
1758	-501.405
1759	-499.302
1760	-497.211
1761	-495.153
1762	-493.141
1763	-491.176
1764	-489.244
1765	-487.327
1766	-485.406
1767	-483.465
1768	-481.492
1769	-479.476
1770	-477.41
1771	-475.285
1772	-473.098
1773	-470.846
1774	-468.523
1775	-466.113
1776	-463.599
1777	-460.966
1778	-458.206
1779	-455.317
1780	-452.299
1781	-449.159
1782	-445.909
1783	-442.563
1784	-439.134
1785	-435.631
1786	-432.06
1787	-428.429
1788	-424.744
1789	-421.01
1790	-417.233
1791	-413.42
1792	-409.577
1793	-405.717
1794	-401.852
1795	-397.998
1796	-394.172
1797	-390.383
1798	-386.631
1799	-382.899
1800	-379.167
1801	-375.417
1802	-371.637
1803	-367.813
1804	-363.936
1805	-359.995
1806	-355.978
1807	-351.876
1808	-347.679
1809	-343.384
1810	-338.999
1811	-334.535
1812	-330.005
1813	-325.42
1814	-320.787
1815	-316.108
1816	-311.379
1817	-306.59
1818	-301.727
1819	-296.774
1820	-291.723
1821	-286.573
1822	-281.333
1823	-276.02
1824	-270.654
1825	-265.261
1826	-259.865
1827	-254.493
1828	-249.177
1829	-243.953
1830	-238.857
1831	-233.924
1832	-229.176
1833	-224.628
1834	-220.283
1835	-216.141
1836	-212.206
1837	-208.486
1838	-204.997
1839	-201.749
1840	-198.738
1841	-195.947
1842	-193.353
1843	-190.934
1844	-188.68
1845	-186.585
1846	-184.655
1847	-182.906
1848	-181.363
1849	-180.063
1850	-179.035
1851	-178.296
1852	-177.849
1853	-177.694
1854	-177.829
1855	-178.263
1856	-179.003
1857	-180.055
1858	-181.417
1859	-183.083
1860	-185.041
1861	-187.279
1862	-189.783
1863	-192.546
1864	-195.564
1865	-198.834
1866	-202.345
1867	-206.084
1868	-210.037
1869	-214.202
1870	-218.586
1871	-223.204
1872	-228.068
1873	-233.182
1874	-238.538
1875	-244.128
1876	-249.946
1877	-255.989
1878	-262.256
1879	-268.742
1880	-275.435
1881	-282.324
1882	-289.392
1883	-296.626
1884	-304.011
1885	-311.536
1886	-319.192
1887	-326.974
1888	-334.876
1889	-342.882
1890	-350.969
1891	-359.104
1892	-367.253
1893	-375.38
1894	-383.452
1895	-391.443
1896	-399.326
1897	-407.08
1898	-414.681
1899	-422.101
1900	-429.304
1901	-436.257
1902	-442.925
1903	-449.283
1904	-455.318
1905	-461.03
1906	-466.438
1907	-471.573
1908	-476.476
1909	-481.182
1910	-485.716
1911	-490.095
1912	-494.326
1913	-498.414
1914	-502.362
1915	-506.173
1916	-509.849
1917	-513.386
1918	-516.781
1919	-520.031
1920	-523.143
1921	-526.124
1922	-528.978
1923	-531.702
1924	-534.285
1925	-536.714
1926	-538.975
1927	-541.052
1928	-542.938
1929	-544.629
1930	-546.132
1931	-547.464
1932	-548.651
1933	-549.726
1934	-550.722
1935	-551.673
1936	-552.605
1937	-553.534
1938	-554.468
1939	-555.407
1940	-556.344
1941	-557.27
1942	-558.176
1943	-559.06
1944	-559.927
1945	-560.791
1946	-561.664
1947	-562.553
1948	-563.452
1949	-564.333
1950	-565.158
1951	-565.888
1952	-566.496
1953	-566.966
1954	-567.289
1955	-567.465
1956	-567.5
1957	-567.411
1958	-567.214
1959	-566.927
1960	-566.558
1961	-566.105
1962	-565.56
1963	-564.928
1964	-564.229
1965	-563.498
1966	-562.773
1967	-562.092
1968	-561.493
1969	-561.009
1970	-560.667
1971	-560.478
1972	-560.443
1973	-560.548
1974	-560.768
1975	-561.067
1976	-561.409
1977	-561.766
1978	-562.129
1979	-562.496
1980	-562.872
1981	-563.259
1982	-563.65
1983	-564.038
1984	-564.421
1985	-564.8
1986	-565.179
1987	-565.554
1988	-565.921
1989	-566.273
1990	-566.601
1991	-566.895
1992	-567.144
1993	-567.341
1994	-567.477
1995	-567.546
1996	-567.537
1997	-567.441
1998	-567.258
1999	-566.991
2000	-566.648
2001	-566.244
2002	-565.793
2003	-565.312
2004	-564.818
2005	-564.325
2006	-563.843
2007	-563.377
2008	-562.926
2009	-562.491
2010	-562.069
2011	-561.659
2012	-561.261
2013	-560.88
2014	-560.521
2015	-560.189
2016	-559.879
2017	-559.582
2018	-559.286
2019	-558.98
2020	-558.651
2021	-558.277
2022	-557.824
2023	-557.26
2024	-556.552
2025	-555.679
2026	-554.633
2027	-553.423
2028	-552.069
2029	-550.597
2030	-549.032
2031	-547.398
2032	-545.714
2033	-544.003
2034	-542.282
2035	-540.573
2036	-538.903
2037	-537.301
2038	-535.8
2039	-534.429
2040	-533.218
2041	-532.19
2042	-531.369
2043	-530.773
2044	-530.407
2045	-530.261
2046	-530.309
2047	-530.514
2048	-530.843
2049	-531.264
2050	-531.746
2051	-532.256
2052	-532.753
2053	-533.196
2054	-533.548
2055	-533.781
2056	-533.881
2057	-533.851
2058	-533.699
2059	-533.438
2060	-533.084
2061	-532.65
2062	-532.154
2063	-531.612
2064	-531.043
2065	-530.46
2066	-529.873
2067	-529.291
2068	-528.718
2069	-528.162
2070	-527.634
2071	-527.143
2072	-526.695
2073	-526.294
2074	-525.938
2075	-525.623
2076	-525.347
2077	-525.105
2078	-524.893
2079	-524.708
2080	-524.546
2081	-524.4
2082	-524.263
2083	-524.126
2084	-523.986
2085	-523.843
2086	-523.705
2087	-523.587
2088	-523.51
2089	-523.49
2090	-523.53
2091	-523.617
2092	-523.735
2093	-523.864
2094	-523.996
2095	-524.13
2096	-524.281
2097	-524.469
2098	-524.722
2099	-525.069
2100	-525.531
2101	-526.119
2102	-526.829
2103	-527.64
2104	-528.522
2105	-529.448
2106	-530.398
2107	-531.352
2108	-532.288
2109	-533.186
2110	-534.033
2111	-534.832
2112	-535.596
2113	-536.33
2114	-537.029
2115	-537.676
2116	-538.245
2117	-538.714
2118	-539.069
2119	-539.306
2120	-539.428
2121	-539.444
2122	-539.368
2123	-539.215
2124	-539.003
2125	-538.755
2126	-538.498
2127	-538.256
2128	-538.053
2129	-537.908
2130	-537.827
2131	-537.805
2132	-537.825
2133	-537.865
2134	-537.901
2135	-537.91
2136	-537.875
2137	-537.788
2138	-537.648
2139	-537.459
2140	-537.235
2141	-536.989
2142	-536.734
2143	-536.473
2144	-536.204
2145	-535.914
2146	-535.58
2147	-535.178
2148	-534.685
2149	-534.084
2150	-533.366
2151	-532.519
2152	-531.538
2153	-530.423
2154	-529.186
2155	-527.849
2156	-526.443
2157	-525.003
2158	-523.568
2159	-522.18
2160	-520.876
2161	-519.685
2162	-518.619
2163	-517.681
2164	-516.874
2165	-516.202
2166	-515.668
2167	-515.269
2168	-514.991
2169	-514.814
2170	-514.719
2171	-514.689
2172	-514.712
2173	-514.777
2174	-514.864
2175	-514.948
2176	-515.008
2177	-515.032
2178	-515.023
2179	-514.99
2180	-514.952
2181	-514.926
2182	-514.925
2183	-514.953
2184	-515.001
2185	-515.055
2186	-515.101
2187	-515.136
2188	-515.162
2189	-515.185
2190	-515.203
2191	-515.209
2192	-515.19
2193	-515.135
2194	-515.039
2195	-514.901
2196	-514.717
2197	-514.477
2198	-514.169
2199	-513.785
2200	-513.32
2201	-512.782
2202	-512.188
2203	-511.56
2204	-510.92
2205	-510.284
2206	-509.664
2207	-509.077
2208	-508.544
2209	-508.085
2210	-507.708
2211	-507.4
2212	-507.131
2213	-506.86
2214	-506.549
2215	-506.166
2216	-505.687
2217	-505.096
2218	-504.376
2219	-503.511
2220	-502.494
2221	-501.32
2222	-499.988
2223	-498.497
2224	-496.847
2225	-495.042
2226	-493.1
2227	-491.043
2228	-488.906
2229	-486.73
2230	-484.554
2231	-482.413
2232	-480.334
2233	-478.341
2234	-476.454
2235	-474.69
2236	-473.06
2237	-471.57
2238	-470.225
2239	-469.025
2240	-467.966
2241	-467.038
2242	-466.225
2243	-465.505
2244	-464.851
2245	-464.238
2246	-463.639
2247	-463.031
2248	-462.398
2249	-461.727
2250	-461.01
2251	-460.249
2252	-459.452
2253	-458.639
2254	-457.837
2255	-457.077
2256	-456.395
2257	-455.822
2258	-455.387
2259	-455.115
2260	-455.021
2261	-455.114
2262	-455.401
2263	-455.885
2264	-456.571
2265	-457.463
2266	-458.563
2267	-459.865
2268	-461.353
2269	-463.008
2270	-464.811
2271	-466.748
2272	-468.807
2273	-470.978
2274	-473.244
2275	-475.585
2276	-477.975
2277	-480.382
2278	-482.777
2279	-485.138
2280	-487.453
2281	-489.714
2282	-491.918
2283	-494.064
2284	-496.15
2285	-498.178
2286	-500.151
2287	-502.077
2288	-503.966
2289	-505.827
2290	-507.665
2291	-509.48
2292	-511.271
2293	-513.032
2294	-514.759
2295	-516.445
2296	-518.078
2297	-519.642
2298	-521.113
2299	-522.474
2300	-523.71
2301	-524.817
2302	-525.793
2303	-526.629
2304	-527.32
2305	-527.86
2306	-528.25
2307	-528.504
2308	-528.641
2309	-528.682
2310	-528.641
2311	-528.53
2312	-528.365
2313	-528.166
2314	-527.959
2315	-527.772
2316	-527.627
2317	-527.533
2318	-527.488
2319	-527.488
2320	-527.526
2321	-527.596
2322	-527.684
2323	-527.768
2324	-527.829
2325	-527.853
2326	-527.839
2327	-527.797
2328	-527.744
2329	-527.693
2330	-527.647
2331	-527.604
2332	-527.555
2333	-527.492
2334	-527.405
2335	-527.279
2336	-527.097
2337	-526.843
2338	-526.5
2339	-526.054
2340	-525.493
2341	-524.809
2342	-523.998
2343	-523.06
2344	-522.004
2345	-520.854
2346	-519.641
2347	-518.409
2348	-517.197
2349	-516.042
2350	-514.956
2351	-513.923
2352	-512.899
2353	-511.826
2354	-510.637
2355	-509.254
2356	-507.585
2357	-505.518
2358	-502.929
2359	-499.687
2360	-495.663
2361	-490.731
2362	-484.771
2363	-477.67
2364	-469.332
2365	-459.682
2366	-448.673
2367	-436.288
2368	-422.548
2369	-407.507
2370	-391.243
2371	-373.847
2372	-355.42
2373	-336.079
2374	-315.964
2375	-295.251
2376	-274.147
2377	-252.888
2378	-231.725
2379	-210.921
2380	-190.753
2381	-171.506
2382	-153.479
2383	-136.97
2384	-122.269
2385	-109.644
2386	-99.3246
2387	-91.5
2388	-86.3099
2389	-83.8471
2391	-87.2499
2392	-93.0879
2393	-101.607
2394	-112.715
2395	-126.289
2396	-142.179
2397	-160.203
2398	-180.148
2399	-201.77
2400	-224.799
2401	-248.945
2402	-273.906
2403	-299.365
2404	-325
2405	-350.492
2406	-375.539
2407	-399.863
2408	-423.212
2409	-445.363
2410	-466.12
2411	-485.325
2412	-502.86
2413	-518.644
2414	-532.627
2415	-544.793
2416	-555.155
2417	-563.749
2418	-570.629
2419	-575.86
2420	-579.522
2421	-581.705
2422	-582.514
2423	-582.064
2424	-580.475
2425	-577.872
2426	-574.385
2427	-570.146
2428	-565.29
2429	-559.954
2430	-554.27
2431	-548.348
2432	-542.269
2433	-536.083
2434	-529.828
2435	-523.543
2436	-517.269
2437	-511.053
2438	-504.946
2439	-499.006
2440	-493.292
2441	-487.862
2442	-482.762
2443	-478.024
2444	-473.669
2445	-469.702
2446	-466.123
2447	-462.915
2448	-460.054
2449	-457.507
2450	-455.237
2451	-453.212
2452	-451.4
2453	-449.769
2454	-448.284
2455	-446.908
2456	-445.608
2457	-444.356
2458	-443.137
2459	-441.949
2460	-440.787
2461	-439.644
2462	-438.502
2463	-437.34
2464	-436.141
2465	-434.905
2466	-433.638
2467	-432.352
2468	-431.05
2469	-429.731
2470	-428.392
2471	-427.031
2472	-425.642
2473	-424.222
2474	-422.773
2475	-421.299
2476	-419.804
2477	-418.29
2478	-416.761
2479	-415.219
2480	-413.669
2481	-412.122
2482	-410.591
2483	-409.096
2484	-407.654
2485	-406.278
2486	-404.972
2487	-403.732
2488	-402.552
2489	-401.43
2490	-400.369
2491	-399.376
2492	-398.459
2493	-397.613
2494	-396.824
2495	-396.069
2496	-395.324
2497	-394.565
2498	-393.769
2499	-392.911
2500	-391.968
2501	-390.917
2502	-389.746
2503	-388.447
2504	-387.027
2505	-385.501
2506	-383.886
2507	-382.203
2508	-380.473
2509	-378.719
2510	-376.96
2511	-375.206
2512	-373.456
2513	-371.704
2514	-369.939
2515	-368.152
2516	-366.332
2517	-364.474
2518	-362.578
2519	-360.643
2520	-358.665
2521	-356.637
2522	-354.551
2523	-352.39
2524	-350.133
2525	-347.762
2526	-345.269
2527	-342.661
2528	-339.95
2529	-337.146
2530	-334.253
2531	-331.271
2532	-328.202
2533	-325.049
2534	-321.81
2535	-318.485
2536	-315.071
2537	-311.576
2538	-308.021
2539	-304.438
2540	-300.856
2541	-297.293
2542	-293.757
2543	-290.251
2544	-286.781
2545	-283.354
2546	-279.977
2547	-276.652
2548	-273.387
2549	-270.192
2550	-267.076
2551	-264.039
2552	-261.062
2553	-258.122
2554	-255.195
2555	-252.264
2556	-249.318
2557	-246.339
2558	-243.31
2559	-240.211
2560	-237.027
2561	-233.739
2562	-230.322
2563	-226.751
2564	-223.002
2565	-219.059
2566	-214.912
2567	-210.56
2568	-206.007
2569	-201.265
2570	-196.354
2571	-191.305
2572	-186.165
2573	-180.983
2574	-175.808
2575	-170.676
2576	-165.611
2577	-160.625
2578	-155.724
2579	-150.903
2580	-146.161
2581	-141.5
2582	-136.931
2583	-132.47
2584	-128.134
2585	-123.939
2586	-119.893
2587	-116.002
2588	-112.267
2589	-108.687
2590	-105.258
2591	-101.982
2592	-98.8756
2593	-95.9649
2594	-93.278
2595	-90.8312
2596	-88.6256
2597	-86.6502
2598	-84.8851
2599	-83.3018
2600	-81.8648
2601	-80.5406
2602	-79.3066
2603	-78.1524
2604	-77.0764
2605	-76.0842
2606	-75.1899
2607	-74.4184
2608	-73.8019
2609	-73.374
2610	-73.1624
2611	-73.1858
2612	-73.4542
2613	-73.9699
2614	-74.7308
2615	-75.7384
2616	-77.0088
2617	-78.5752
2618	-80.479
2619	-82.7535
2620	-85.4138
2621	-88.4576
2622	-91.8718
2623	-95.6381
2624	-99.7387
2625	-104.16
2626	-108.894
2627	-113.939
2628	-119.289
2629	-124.935
2630	-130.853
2631	-137.01
2632	-143.368
2633	-149.89
2634	-156.538
2635	-163.26
2636	-169.997
2637	-176.684
2638	-183.263
2639	-189.685
2640	-195.913
2641	-201.926
2642	-207.719
2643	-213.298
2644	-218.685
2645	-223.905
2646	-228.993
2647	-233.99
2648	-238.938
2649	-243.871
2650	-248.819
2651	-253.801
2652	-258.825
2653	-263.89
2654	-268.991
2655	-274.139
2656	-279.368
2657	-284.723
2658	-290.248
2659	-295.97
2660	-301.912
2661	-308.087
2662	-314.498
2663	-321.13
2664	-327.942
2665	-334.872
2666	-341.839
2667	-348.749
2668	-355.5
2669	-361.99
2670	-368.127
2671	-373.832
2672	-379.03
2673	-383.644
2674	-387.592
2675	-390.784
2676	-393.138
2677	-394.587
2678	-395.097
2679	-394.681
2680	-393.394
2681	-391.34
2682	-388.673
2683	-385.598
2684	-382.351
2685	-379.149
2686	-376.151
2687	-373.443
2688	-371.06
2689	-369.012
2690	-367.303
2691	-365.928
2692	-364.864
2693	-364.081
2694	-363.556
2695	-363.283
2696	-363.268
2697	-363.51
2698	-363.977
2699	-364.575
2700	-365.141
2701	-365.448
2702	-365.217
2703	-364.125
2704	-361.852
2705	-358.139
2706	-352.847
2707	-346.014
2708	-337.88
2709	-328.893
2710	-319.652
2711	-310.81
2712	-302.951
2713	-296.503
2714	-291.681
2715	-288.474
2716	-286.667
2717	-285.901
2718	-285.726
2719	-285.672
2720	-285.295
2721	-284.211
2722	-282.121
2723	-278.855
2724	-274.438
2725	-269.164
2726	-263.619
2727	-258.628
2728	-255.103
2729	-253.846
2730	-255.407
2731	-260.034
2732	-267.702
2733	-278.173
2734	-291.045
2735	-305.819
2736	-321.969
2737	-338.97
2738	-356.281
2739	-373.315
2740	-389.449
2741	-404.121
2742	-416.909
2743	-427.561
2744	-435.998
2745	-442.289
2746	-446.635
2747	-449.332
2748	-450.729
2749	-451.184
2750	-451.056
2751	-450.71
2752	-450.52
2753	-450.848
2754	-451.987
2755	-454.058
2756	-456.88
2757	-459.905
2758	-462.308
2759	-463.182
2760	-461.724
2761	-457.409
2762	-450.174
2763	-440.519
2764	-429.395
2765	-417.918
2766	-407.126
2767	-397.854
2768	-390.659
2769	-385.76
2770	-383.016
2771	-382.002
2772	-382.202
2773	-383.262
2774	-385.179
2775	-388.377
2776	-393.639
2777	-401.903
2778	-413.956
2779	-430.21
2780	-450.647
2781	-474.837
2782	-501.982
2783	-531.002
2784	-560.717
2785	-590.073
2786	-618.33
2787	-645.117
2788	-670.368
2789	-694.207
2790	-716.797
2791	-738.175
2792	-758.145
2793	-776.307
2794	-792.134
2795	-805.067
2796	-814.656
2797	-820.721
2798	-823.422
2799	-823.177
2800	-820.523
2801	-815.997
2802	-810.056
2803	-803
2804	-794.949
2805	-785.903
2806	-775.875
2807	-764.992
2808	-753.499
2809	-741.716
2810	-730.086
2811	-719.307
2812	-710.371
2813	-704.376
2814	-702.229
2815	-704.436
2816	-711.035
2817	-721.621
2818	-735.404
2819	-751.31
2820	-768.089
2821	-784.409
2822	-798.942
2823	-810.497
2824	-818.127
2825	-821.216
2826	-819.518
2827	-813.17
2828	-802.661
2829	-788.723
2830	-772.153
2831	-753.65
2832	-733.76
2833	-712.923
2834	-691.557
2835	-670.037
2836	-648.566
2837	-627.06
2838	-605.244
2839	-582.972
2840	-560.55
2841	-538.866
2842	-519.206
2843	-502.869
2844	-490.863
2845	-483.794
2846	-481.876
2847	-484.935
2848	-492.418
2849	-503.419
2850	-516.757
2851	-531.119
2852	-545.266
2853	-558.235
2854	-569.431
2855	-578.58
2856	-585.623
2857	-590.624
2858	-593.679
2859	-594.824
2860	-593.991
2861	-591.041
2862	-585.833
2863	-578.273
2864	-568.328
2865	-556.019
2866	-541.459
2867	-524.921
2868	-506.875
2869	-487.923
2870	-468.698
2871	-449.769
2872	-431.645
2873	-414.828
2874	-399.865
2875	-387.383
2876	-378.069
2877	-372.571
2878	-371.356
2879	-374.587
2880	-382.054
2881	-393.138
2882	-406.867
2883	-422.06
2884	-437.525
2885	-452.218
2886	-465.292
2887	-476.073
2888	-484.048
2889	-488.889
2890	-490.443
2891	-488.767
2892	-484.231
2893	-477.582
2894	-469.829
2895	-462.003
2896	-454.914
2897	-449.009
2898	-444.347
2899	-440.666
2900	-437.496
2901	-434.237
2902	-430.233
2903	-424.886
2904	-417.827
2905	-409.07
2906	-399.012
2907	-388.293
2908	-377.585
2909	-367.418
2910	-358.072
2911	-349.537
2912	-341.592
2913	-333.95
2914	-326.452
2915	-319.218
2916	-312.675
2917	-307.378
2918	-303.75
2919	-301.88
2920	-301.512
2921	-302.154
2922	-303.275
2923	-304.475
2924	-305.513
2925	-306.198
2926	-306.324
2927	-305.711
2928	-304.309
2929	-302.307
2930	-300.171
2931	-298.569
2932	-298.141
2933	-299.245
2934	-301.785
2935	-305.205
2936	-308.649
2937	-311.242
2938	-312.352
2939	-311.707
2940	-309.347
2941	-305.517
2942	-300.599
2943	-295.072
2944	-289.411
2945	-283.978
2946	-278.967
2947	-274.458
2948	-270.501
2949	-267.166
2950	-264.527
2951	-262.676
2952	-261.774
2953	-262.075
2954	-263.857
2955	-267.323
2956	-272.529
2957	-279.319
2958	-287.292
2959	-295.818
2960	-304.138
2961	-311.516
2962	-317.363
2963	-321.231
2964	-322.739
2965	-321.515
2966	-317.2
2967	-309.499
2968	-298.274
2969	-283.666
2970	-266.187
2971	-246.667
2972	-226.058
2973	-205.195
2974	-184.635
2975	-164.603
2976	-145.047
2977	-125.812
2978	-106.862
2979	-88.3795
2980	-70.7229
2981	-54.3405
2982	-39.7212
2983	-27.3637
2984	-17.7227
2985	-11.1481
2986	-7.88049
2987	-8.12466
2988	-12.1335
2989	-20.2101
2990	-32.6007
2991	-49.3403
2992	-70.1466
2993	-94.4137
2994	-121.3
2995	-149.847
2996	-179.048
2997	-207.868
2998	-235.271
2999	-260.297
3000	-282.197
3001	-300.571
3002	-315.414
3003	-327.081
3004	-336.175
3005	-343.4
3006	-349.419
3007	-354.747
3008	-359.674
3009	-364.207
3010	-368.07
3011	-370.793
3012	-371.87
3013	-370.954
3014	-367.972
3015	-363.083
3016	-356.522
3017	-348.477
3018	-339.045
3019	-328.214
3020	-315.802
3021	-301.383
3022	-284.288
3023	-263.745
3024	-239.176
3025	-210.531
3026	-178.44
3027	-144.085
3028	-108.924
3029	-74.4364
3030	-42.0004
3031	-12.7989
3032	12.3109
3033	32.8924
3034	48.9103
3035	60.6548
3036	68.6924
3037	73.7996
3038	76.8172
3039	78.481
3040	79.303
3041	79.4892
3042	78.8785
3043	76.9678
3044	73.0555
3045	66.4293
3046	56.5129
3047	42.9659
3048	25.747
3049	5.12839
3050	-18.3479
3051	-43.9553
3052	-70.8902
3053	-98.3719
3054	-125.697
3055	-152.212
3056	-177.225
3057	-199.93
3058	-219.421
3059	-234.802
3060	-245.36
3061	-250.704
3062	-250.81
3063	-245.997
3064	-236.87
3065	-224.279
3066	-209.299
3067	-193.151
3068	-177.045
3069	-161.968
3070	-148.565
3071	-137.169
3072	-127.926
3073	-120.889
3074	-116.005
3075	-113.096
3076	-111.894
3077	-112.136
3078	-113.627
3079	-116.251
3080	-119.924
3081	-124.486
3082	-129.584
3083	-134.611
3084	-138.76
3085	-141.13
3086	-140.859
3087	-137.302
3088	-130.208
3089	-119.799
3090	-106.718
3091	-91.9256
3092	-76.561
3093	-61.7074
3094	-48.1199
3095	-36.1141
3096	-25.7108
3097	-16.9032
3098	-9.86328
3099	-5.01966
3100	-3.00278
3101	-4.46091
3102	-9.8455
3103	-19.3092
3104	-32.7344
3105	-49.8057
3106	-70.0746
3107	-93.0205
3108	-118.112
3109	-144.835
3110	-172.678
3111	-201.081
3112	-229.396
3113	-256.876
3114	-282.705
3115	-306.11
3116	-326.465
3117	-343.319
3118	-356.306
3119	-365.069
3120	-369.294
3121	-368.833
3122	-363.817
3123	-354.718
3124	-342.305
3125	-327.507
3126	-311.234
3127	-294.239
3128	-277.043
3129	-259.94
3130	-243.052
3131	-226.378
3132	-209.826
3133	-193.232
3134	-176.421
3135	-159.27
3136	-141.779
3137	-124.113
3138	-106.598
3139	-89.6623
3140	-73.7229
3141	-59.078
3142	-45.8928
3143	-34.2877
3144	-24.4403
3145	-16.6484
3146	-11.3448
3147	-9.023
3148	-10.0754
3149	-14.6181
3150	-22.3763
3151	-32.6666
3152	-44.4818
3153	-56.6565
3154	-68.0773
3155	-77.8709
3156	-85.4678
3157	-90.5076
3158	-92.6868
3159	-91.7037
3160	-87.3309
3161	-79.5079
3162	-68.3521
3163	-54.0894
3164	-36.9625
3165	-17.1905
3166	4.97771
3167	29.1592
3168	54.7886
3169	81.1575
3170	107.488
3171	132.979
3172	156.814
3173	178.199
3174	196.463
3175	211.168
3176	222.162
3177	229.546
3178	233.574
3179	234.551
3180	232.8
3181	228.691
3182	222.64
3183	215.018
3184	206.03
3185	195.679
3186	183.859
3187	170.524
3188	155.851
3189	140.332
3190	124.759
3191	110.047
3192	96.9589
3193	85.8579
3194	76.585
3195	68.506
3196	60.7029
3197	52.211
3198	42.1846
3199	29.977
3200	15.1851
3201	-2.32859
3202	-22.4601
3203	-44.9255
3204	-69.3141
3205	-95.1057
3206	-121.677
3207	-148.337
3208	-174.383
3209	-199.119
3210	-221.833
3211	-241.753
3212	-258.008
3213	-269.653
3214	-275.756
3215	-275.577
3216	-268.823
3217	-255.833
3218	-237.507
3219	-215.012
3220	-189.525
3221	-162.185
3222	-134.161
3223	-106.679
3224	-80.9546
3225	-58.1001
3226	-39.0669
3227	-24.5949
3228	-15.1595
3229	-10.9247
3230	-11.7252
3231	-17.0761
3232	-26.2164
3233	-38.1762
3234	-51.8353
3235	-65.9611
3236	-79.2657
3237	-90.5459
3238	-98.914
3239	-103.98
3240	-105.862
3241	-105.089
3242	-102.465
3243	-98.8444
3244	-94.8824
3245	-90.8876
3246	-86.8628
3247	-82.637
3248	-77.9792
3249	-72.6587
3250	-66.4866
3251	-59.3778
3252	-51.4413
3253	-43.0359
3254	-34.7421
3255	-27.2619
3256	-21.2825
3257	-17.3589
3258	-15.8499
3259	-16.8772
3260	-20.3126
3261	-25.8476
3262	-33.1103
3263	-41.7206
3264	-51.2484
3265	-61.1608
3266	-70.8558
3267	-79.7909
3268	-87.6044
3269	-94.1223
3270	-99.2508
3271	-102.847
3272	-104.681
3273	-104.529
3274	-102.323
3275	-98.2309
3276	-92.6323
3277	-86.0227
3278	-78.9338
3279	-71.8743
3280	-65.2531
3281	-59.2984
3282	-54.0303
3283	-49.3006
3284	-44.8736
3285	-40.5084
3286	-36.0053
3287	-31.1805
3288	-25.7857
3289	-19.456
3290	-11.7425
3291	-2.23013
3292	9.29374
3293	22.7047
3294	37.5501
3295	53.1768
3296	68.8562
3297	83.8497
3298	97.45
3299	109.015
3300	117.981
3301	123.881
3302	126.377
3303	125.313
3304	120.74
3305	112.92
3306	102.312
3307	89.5455
3308	75.3813
3309	60.6389
3310	46.1167
3311	32.5346
3312	20.5157
3313	10.6256
3314	3.46029
3315	-0.311579
3316	-0.0307082
3317	4.81166
3318	14.481
3319	28.9592
3320	47.8923
3321	70.5028
3322	95.5398
3323	121.386
3324	146.336
3325	168.908
3326	188.039
3327	203.113
3328	213.882
3329	220.366
3330	222.778
3331	221.492
3332	216.981
3333	209.729
3334	200.18
3335	188.742
3336	175.809
3337	161.774
3338	147.027
3339	131.964
3340	116.976
3341	102.435
3342	88.6616
3343	75.9264
3344	64.4475
3345	54.3919
3346	45.8804
3347	38.9968
3348	33.7888
3349	30.2636
3350	28.3913
3351	28.1205
3352	29.3977
3353	32.1826
3354	36.4502
3355	42.1849
3356	49.372
3357	57.9903
3358	68.0027
3359	79.3463
3360	91.926
3361	105.611
3362	120.233
3363	135.595
3364	151.483
3365	167.691
3366	184.03
3367	200.33
3368	216.447
3369	232.262
3370	247.697
3371	262.719
3372	277.332
3373	291.557
3374	305.401
3375	318.847
3376	331.848
3377	344.346
3378	356.276
3379	367.58
3380	378.203
3381	388.107
3382	397.283
3383	405.749
3384	413.555
3385	420.762
3386	427.435
3387	433.621
3388	439.342
3389	444.608
3390	449.425
3391	453.808
3392	457.777
3393	461.34
3394	464.5
3395	467.253
3396	469.6
3397	471.549
3398	473.115
3399	474.314
3400	475.153
3401	475.639
3402	475.773
3403	475.552
3404	474.966
3405	474.004
3406	472.654
3407	470.904
3408	468.741
3409	466.143
3410	463.092
3411	459.582
3412	455.63
3413	451.285
3414	446.622
3415	441.728
3416	436.686
3417	431.572
3418	426.454
3419	421.392
3420	416.438
3421	411.633
3422	407.013
3423	402.604
3424	398.427
3425	394.487
3426	390.778
3427	387.274
3428	383.922
3429	380.644
3430	377.353
3431	373.969
3432	370.431
3433	366.708
3434	362.804
3435	358.751
3436	354.602
3437	350.422
3438	346.283
3439	342.261
3440	338.434
3441	334.875
3442	331.648
3443	328.809
3444	326.405
3445	324.473
3446	323.037
3447	322.101
3448	321.641
3449	321.605
3450	321.918
3451	322.502
3452	323.279
3453	324.186
3454	325.179
3455	326.23
3456	327.332
3457	328.496
3458	329.741
3459	331.088
3460	332.535
3461	334.054
3462	335.603
3463	337.141
3464	338.637
3465	340.066
3466	341.408
3467	342.655
3468	343.815
3469	344.914
3470	345.977
3471	347.032
3472	348.107
3473	349.235
3474	350.463
3475	351.849
3476	353.446
3477	355.28
3478	357.336
3479	359.549
3480	361.826
3481	364.075
3482	366.236
3483	368.289
3484	370.242
3485	372.122
3486	373.97
3487	375.834
3488	377.754
3489	379.754
3490	381.83
3491	383.943
3492	386.023
3493	387.988
3494	389.766
3495	391.298
3496	392.542
3497	393.461
3498	394.025
3499	394.216
3500	394.032
3501	393.489
3502	392.62
3503	391.483
3504	390.15
3505	388.7
3506	387.223
3507	385.811
3508	384.549
3509	383.501
3510	382.712
3511	382.206
3512	381.972
3513	381.963
3514	382.103
3515	382.305
3516	382.482
3517	382.553
3518	382.448
3519	382.129
3520	381.59
3521	380.85
3522	379.939
3523	378.883
3524	377.695
3525	376.374
3526	374.905
3527	373.259
3528	371.407
3529	369.334
3530	367.047
3531	364.573
3532	361.956
3533	359.247
3534	356.498
3535	353.756
3536	351.066
3537	348.469
3538	345.997
3539	343.673
3540	341.505
3541	339.497
3542	337.645
3543	335.944
3544	334.383
3545	332.942
3546	331.593
3547	330.304
3548	329.039
3549	327.764
3550	326.449
3551	325.07
3552	323.613
3553	322.071
3554	320.442
3555	318.725
3556	316.924
3557	315.05
3558	313.135
3559	311.223
3560	309.359
3561	307.576
3562	305.896
3563	304.327
3564	302.874
3565	301.532
3566	300.295
3567	299.153
3568	298.097
3569	297.11
3570	296.163
3571	295.214
3572	294.216
3573	293.124
3574	291.91
3575	290.566
3576	289.097
3577	287.523
3578	285.871
3579	284.184
3580	282.511
3581	280.889
3582	279.328
3583	277.821
3584	276.348
3585	274.888
3586	273.417
3587	271.912
3588	270.355
3589	268.731
3590	267.028
3591	265.232
3592	263.334
3593	261.331
3594	259.224
3595	257.021
3596	254.731
3597	252.361
3598	249.925
3599	247.442
3600	244.93
3601	242.411
3602	239.912
3603	237.456
3604	235.062
3605	232.742
3606	230.501
3607	228.342
3608	226.269
3609	224.296
3610	222.445
3611	220.745
3612	219.229
3613	217.932
3614	216.883
3615	216.103
3616	215.599
3617	215.369
3618	215.401
3619	215.673
3620	216.161
3621	216.839
3622	217.684
3623	218.674
3624	219.787
3625	220.996
3626	222.267
3627	223.566
3628	224.861
3629	226.129
3630	227.35
3631	228.504
3632	229.566
3633	230.508
3634	231.299
3635	231.91
3636	232.326
3637	232.541
3638	232.56
3639	232.399
3640	232.086
3641	231.652
3642	231.132
3643	230.554
3644	229.943
3645	229.309
3646	228.656
3647	227.978
3648	227.277
3649	226.558
3650	225.838
3651	225.141
3652	224.498
3653	223.941
3654	223.499
3655	223.195
3656	223.049
3657	223.075
3658	223.274
3659	223.633
3660	224.123
3661	224.703
3662	225.323
3663	225.927
3664	226.452
3665	226.844
3666	227.056
3667	227.055
3668	226.82
3669	226.351
3670	225.667
3671	224.81
3672	223.837
3673	222.814
3674	221.8
3675	220.83
3676	219.913
3677	219.04
3678	218.195
3679	217.355
3680	216.501
3681	215.626
3682	214.727
3683	213.803
3684	212.84
3685	211.817
3686	210.714
3687	209.517
3688	208.225
3689	206.849
3690	205.414
3691	203.945
3692	202.469
3693	201.02
3694	199.634
3695	198.349
3696	197.204
3697	196.23
3698	195.449
3699	194.871
3700	194.498
3701	194.329
3702	194.362
3703	194.603
3704	195.059
3705	195.734
3706	196.623
3707	197.711
3708	198.976
3709	200.388
3710	201.913
3711	203.51
3712	205.137
3713	206.747
3714	208.297
3715	209.743
3716	211.05
3717	212.196
3718	213.172
3719	213.977
3720	214.606
3721	215.054
3722	215.318
3723	215.393
3724	215.277
3725	214.964
3726	214.451
3727	213.739
3728	212.845
3729	211.793
3730	210.609
3731	209.313
3732	207.922
3733	206.459
3734	204.953
3735	203.449
3736	202
3737	200.664
3738	199.493
3739	198.527
3740	197.788
3741	197.286
3742	197.019
3743	196.981
3744	197.157
3745	197.53
3746	198.073
3747	198.757
3748	199.55
3749	200.426
3750	201.36
3751	202.329
3752	203.313
3753	204.295
3754	205.256
3755	206.178
3756	207.033
3757	207.789
3758	208.423
3759	208.931
3760	209.337
3761	209.677
3762	209.986
3763	210.286
3764	210.588
3765	210.904
3766	211.245
3767	211.62
3768	212.035
3769	212.501
3770	213.042
3771	213.688
3772	214.461
3773	215.368
3774	216.396
3775	217.522
3776	218.722
3777	219.97
3778	221.239
3779	222.512
3780	223.776
3781	225.031
3782	226.28
3783	227.529
3784	228.775
3785	230.008
3786	231.214
3787	232.374
3788	233.46
3789	234.438
3790	235.28
3791	235.973
3792	236.517
3793	236.929
3794	237.234
3795	237.459
3796	237.629
3797	237.761
3798	237.867
3799	237.949
3800	238.004
3801	238.027
3802	238.012
3803	237.951
3804	237.837
3805	237.661
3806	237.418
3807	237.107
3808	236.732
3809	236.29
3810	235.765
3811	235.123
3812	234.319
3813	233.304
3814	232.045
3815	230.525
3816	228.742
3817	226.701
3818	224.409
3819	221.875
3820	219.118
3821	216.16
3822	213.03
3823	209.763
3824	206.393
3825	202.951
3826	199.466
3827	195.974
3828	192.526
3829	189.175
3830	185.971
3831	182.952
3832	180.142
3833	177.56
3834	175.222
3835	173.136
3836	171.303
3837	169.709
3838	168.326
3839	167.12
3840	166.054
3841	165.098
3842	164.211
3843	163.35
3844	162.461
3845	161.488
3846	160.381
3847	159.103
3848	157.641
3849	156.002
3850	154.209
3851	152.296
3852	150.31
3853	148.313
3854	146.376
3855	144.569
3856	142.949
3857	141.56
3858	140.42
3859	139.528
3860	138.867
3861	138.404
3862	138.097
3863	137.898
3864	137.765
3865	137.662
3866	137.563
3867	137.447
3868	137.296
3869	137.099
3870	136.855
3871	136.571
3872	136.25
3873	135.886
3874	135.476
3875	135.025
3876	134.553
3877	134.085
3878	133.645
3879	133.258
3880	132.941
3881	132.712
3882	132.585
3883	132.569
3884	132.657
3885	132.834
3886	133.069
3887	133.319
3888	133.53
3889	133.643
3890	133.601
3891	133.357
3892	132.879
3893	132.147
3894	131.159
3895	129.931
3896	128.502
3897	126.935
3898	125.317
3899	123.751
3900	122.353
3901	121.236
3902	120.502
3903	120.235
3904	120.52
3905	121.453
3906	123.154
3907	125.769
3908	129.457
3909	134.369
3910	140.631
3911	148.334
3912	157.538
3913	168.273
3914	180.536
3915	194.288
3916	209.457
3917	225.949
3918	243.648
3919	262.416
3920	282.089
3921	302.475
3922	323.355
3923	344.491
3924	365.622
3925	386.472
3926	406.752
3927	426.174
3928	444.456
3929	461.32
3930	476.495
3931	489.728
3932	500.794
3933	509.501
3934	515.686
3935	519.219
3937	517.985
3938	513.147
3939	505.51
3940	495.125
3941	482.077
3942	466.494
3943	448.547
3944	428.455
3945	406.481
3946	382.929
3947	358.136
3948	332.457
3949	306.257
3950	279.888
3951	253.686
3952	227.967
3953	203.025
3954	179.124
3955	156.493
3956	135.323
3957	115.759
3958	97.9042
3959	81.8344
3960	67.5965
3961	55.2121
3962	44.6749
3963	35.9514
3964	28.9832
3965	23.6906
3966	19.9755
3967	17.7255
3968	16.8191
3969	17.1305
3970	18.531
3971	20.8868
3972	24.0584
3973	27.9049
3974	32.2886
3975	37.0784
3976	42.1572
3977	47.4292
3978	52.823
3979	58.2899
3980	63.7939
3981	69.2987
3982	74.7607
3983	80.1322
3984	85.3699
3985	90.4387
3986	95.3074
3987	99.9433
3988	104.312
3989	108.38
3990	112.122
3991	115.523
3992	118.576
3993	121.286
3994	123.66
3995	125.712
3996	127.462
3997	128.94
3998	130.186
3999	131.242
4000	132.153
4001	132.956
4002	133.682
4003	134.359
4004	135.016
4005	135.674
4006	136.35
4007	137.045
4008	137.746
4009	138.427
4010	139.062
4011	139.629
4012	140.117
4013	140.519
4014	140.835
4015	141.071
4016	141.25
4017	141.407
4018	141.585
4019	141.826
4020	142.166
4021	142.63
4022	143.225
4023	143.94
4024	144.747
4025	145.625
4026	146.563
4027	147.575
4028	148.686
4029	149.917
4030	151.279
4031	152.764
4032	154.34
4033	155.957
4034	157.565
4035	159.115
4036	160.571
4037	161.907
4038	163.104
4039	164.151
4040	165.045
4041	165.795
4042	166.417
4043	166.926
4044	167.334
4045	167.652
4046	167.895
4047	168.087
4048	168.264
4049	168.463
4050	168.712
4051	169.026
4052	169.407
4053	169.846
4054	170.332
4055	170.854
4056	171.405
4057	171.979
4058	172.579
4059	173.213
4060	173.896
4061	174.644
4062	175.469
4063	176.382
4064	177.393
4065	178.514
4066	179.749
4067	181.1
4068	182.56
4069	184.113
4070	185.74
4071	187.425
4072	189.159
4073	190.938
4074	192.764
4075	194.633
4076	196.537
4077	198.465
4078	200.421
4079	202.416
4080	204.469
4081	206.604
4082	208.846
4083	211.219
4084	213.745
4085	216.438
4086	219.293
4087	222.29
4088	225.397
4089	228.568
4090	231.758
4091	234.931
4092	238.07
4093	241.182
4094	244.284
4095	247.392
4096	250.511
4097	253.638
4098	256.769
4099	259.905
4100	263.06
4101	266.253
4102	269.51
4103	272.842
4104	276.244
4105	279.69
4106	283.143
4107	286.568
4108	289.948
4109	293.28
4110	296.569
4111	299.829
4112	303.088
4113	306.381
4114	309.747
4115	313.216
4116	316.81
4117	320.544
4118	324.421
4119	328.435
4120	332.57
4121	336.809
4122	341.128
4123	345.497
4124	349.888
4125	354.273
4126	358.627
4127	362.936
4128	367.204
4129	371.448
4130	375.681
4131	379.903
4132	384.098
4133	388.241
4134	392.298
4135	396.227
4136	399.982
4137	403.52
4138	406.806
4139	409.822
4140	412.56
4141	415.02
4142	417.205
4143	419.12
4144	420.769
4145	422.158
4146	423.285
4147	424.142
4148	424.719
4149	425.007
4150	425.003
4151	424.706
4152	424.115
4153	423.235
4154	422.067
4155	420.613
4156	418.873
4157	416.851
4158	414.546
4159	411.959
4160	409.092
4161	405.945
4162	402.522
4163	398.83
4164	394.881
4165	390.692
4166	386.273
4167	381.629
4168	376.76
4169	371.673
4170	366.373
4171	360.873
4172	355.193
4173	349.353
4174	343.37
4175	337.248
4176	330.98
4177	324.556
4178	317.983
4179	311.283
4180	304.492
4181	297.642
4182	290.757
4183	283.843
4184	276.898
4185	269.907
4186	262.857
4187	255.734
4188	248.526
4189	241.217
4190	233.793
4191	226.246
4192	218.575
4193	210.782
4194	202.868
4195	194.841
4196	186.712
4197	178.503
4198	170.244
4199	161.978
4200	153.765
4201	145.688
4202	137.833
4203	130.284
4204	123.107
4205	116.35
4206	110.036
4207	104.166
4208	98.7223
4209	93.6764
4210	88.9965
4211	84.6507
4212	80.6073
4213	76.8362
4214	73.309
4215	69.9972
4216	66.8692
4217	63.8877
4218	61.0087
4219	58.1853
4220	55.3767
4221	52.555
4222	49.7052
4223	46.821
4224	43.9001
4225	40.9418
4226	37.9471
4227	34.9171
4228	31.8515
4229	28.7502
4230	25.6187
4231	22.471
4232	19.3292
4233	16.2233
4234	13.1914
4235	10.2753
4236	7.51485
4237	4.9418
4238	2.57341
4239	0.40975
4240	-1.56226
4241	-3.35988
4242	-4.99832
4243	-6.49268
4244	-7.86533
4245	-9.14935
4246	-10.3838
4247	-11.6053
4248	-12.8398
4249	-14.0983
4250	-15.376
4251	-16.6564
4252	-17.9166
4253	-19.1312
4254	-20.2747
4255	-21.3195
4256	-22.2396
4257	-23.0186
4258	-23.6528
4259	-24.1451
4260	-24.4953
4261	-24.6975
4262	-24.7455
4263	-24.6395
4264	-24.3894
4265	-24.015
4266	-23.5425
4267	-23.0006
4268	-22.4174
4269	-21.8186
4270	-21.2261
4271	-20.6566
4272	-20.1246
4273	-19.6494
4274	-19.2567
4275	-18.9739
4276	-18.8239
4277	-18.824
4278	-18.9896
4279	-19.3353
4280	-19.8719
4281	-20.6028
4282	-21.5244
4283	-22.6262
4284	-23.8884
4285	-25.2796
4286	-26.7576
4287	-28.2732
4288	-29.7743
4289	-31.206
4290	-32.5163
4291	-33.6649
4292	-34.6273
4293	-35.3951
4294	-35.9718
4295	-36.3679
4296	-36.5959
4297	-36.6676
4298	-36.5942
4299	-36.3861
4300	-36.0528
4301	-35.6046
4302	-35.0581
4303	-34.4403
4304	-33.7895
4305	-33.1512
4306	-32.5709
4307	-32.084
4308	-31.707
4309	-31.4371
4310	-31.2607
4311	-31.1638
4312	-31.14
4313	-31.194
4314	-31.337
4315	-31.5793
4316	-31.9224
4317	-32.3555
4318	-32.8549
4319	-33.386
4320	-33.9115
4321	-34.4015
4322	-34.8383
4323	-35.2128
4324	-35.5191
4325	-35.7534
4326	-35.9171
4327	-36.0182
4328	-36.0704
4329	-36.0903
4330	-36.0952
4331	-36.1003
4332	-36.1132
4333	-36.129
4334	-36.1325
4335	-36.1041
4336	-36.0251
4337	-35.8784
4338	-35.652
4339	-35.3423
4340	-34.9573
4341	-34.5146
4342	-34.0375
4343	-33.5497
4344	-33.0723
4345	-32.6246
4346	-32.2286
4347	-31.907
4348	-31.6772
4349	-31.5455
4350	-31.507
4351	-31.5511
4352	-31.6656
4353	-31.839
4354	-32.0614
4355	-32.3293
4356	-32.6469
4357	-33.0217
4358	-33.4572
4359	-33.9491
4360	-34.4877
4361	-35.0638
4362	-35.6734
4363	-36.3144
4364	-36.9789
4365	-37.65
4366	-38.3083
4367	-38.9421
4368	-39.5517
4369	-40.145
4370	-40.7275
4371	-41.294
4372	-41.8289
4373	-42.3125
4374	-42.7288
4375	-43.071
4376	-43.3447
4377	-43.5647
4378	-43.7493
4379	-43.9143
4380	-44.0708
4381	-44.2264
4382	-44.3861
4383	-44.5534
4384	-44.7296
4385	-44.9164
4386	-45.1179
4387	-45.3418
4388	-45.5984
4389	-45.8976
4390	-46.2475
4391	-46.6538
4392	-47.1197
4393	-47.6466
4394	-48.2377
4395	-48.9034
4396	-49.6618
4397	-50.5333
4398	-51.5324
4399	-52.661
4400	-53.9065
4401	-55.2433
4402	-56.6403
4403	-58.0704
4404	-59.516
4405	-60.9679
4406	-62.4222
4407	-63.8788
4408	-65.3398
4409	-66.8079
4410	-68.2839
4411	-69.7616
4412	-71.2252
4413	-72.6518
4414	-74.0166
4415	-75.2951
4416	-76.4618
4417	-77.4879
4418	-78.3451
4419	-79.0111
4420	-79.4707
4421	-79.7164
4422	-79.7487
4423	-79.5776
4424	-79.2205
4425	-78.7013
4426	-78.0504
4427	-77.3049
4428	-76.508
4429	-75.7093
4430	-74.9624
4431	-74.3182
4432	-73.8147
4433	-73.4733
4434	-73.3013
4435	-73.294
4436	-73.4384
4437	-73.7165
4438	-74.1096
4439	-74.6025
4440	-75.183
4441	-75.8373
4442	-76.5434
4443	-77.2717
4444	-77.9917
4445	-78.676
4446	-79.3001
4447	-79.8416
4448	-80.2826
4449	-80.6137
4450	-80.8351
4451	-80.9557
4452	-80.989
4453	-80.9525
4454	-80.8669
4455	-80.7562
4456	-80.6458
4457	-80.5604
4458	-80.5215
4459	-80.5445
4460	-80.6381
4461	-80.8045
4462	-81.0399
4463	-81.3369
4464	-81.6905
4465	-82.1026
4466	-82.5848
4467	-83.1561
4468	-83.8361
4469	-84.6383
4470	-85.5675
4471	-86.6194
4472	-87.7838
4473	-89.0494
4474	-90.4075
4475	-91.8482
4476	-93.3522
4477	-94.8866
4478	-96.4075
4479	-97.8668
4480	-99.22
4481	-100.432
4482	-101.478
4483	-102.345
4484	-103.031
4485	-103.541
4486	-103.893
4487	-104.11
4488	-104.225
4489	-104.266
4490	-104.266
4491	-104.256
4492	-104.271
4493	-104.341
4494	-104.486
4495	-104.717
4496	-105.031
4497	-105.414
4498	-105.843
4499	-106.288
4500	-106.711
4501	-107.07
4502	-107.332
4503	-107.48
4504	-107.512
4505	-107.434
4506	-107.258
4507	-107.008
4508	-106.719
4509	-106.432
4510	-106.184
4511	-105.999
4512	-105.884
4513	-105.828
4514	-105.807
4515	-105.799
4516	-105.782
4517	-105.746
4518	-105.683
4519	-105.59
4520	-105.472
4521	-105.347
4522	-105.243
4523	-105.192
4524	-105.225
4525	-105.368
4526	-105.643
4527	-106.062
4528	-106.623
4529	-107.307
4530	-108.084
4531	-108.922
4532	-109.784
4533	-110.635
4534	-111.438
4535	-112.168
4536	-112.805
4537	-113.345
4538	-113.787
4539	-114.138
4540	-114.405
4541	-114.603
4542	-114.753
4543	-114.884
4544	-115.027
4545	-115.209
4546	-115.446
4547	-115.739
4548	-116.077
4549	-116.446
4550	-116.828
4551	-117.201
4552	-117.544
4553	-117.84
4554	-118.076
4555	-118.25
4556	-118.363
4557	-118.418
4558	-118.423
4559	-118.385
4560	-118.313
4561	-118.215
4562	-118.105
4563	-118
4564	-117.917
4565	-117.866
4566	-117.842
4567	-117.832
4568	-117.817
4569	-117.785
4570	-117.735
4571	-117.671
4572	-117.595
4573	-117.5
4574	-117.376
4575	-117.21
4576	-116.989
4577	-116.697
4578	-116.319
4579	-115.847
4580	-115.276
4581	-114.608
4582	-113.845
4583	-112.989
4584	-112.048
4585	-111.041
4586	-110.001
4587	-108.97
4588	-107.996
4589	-107.125
4590	-106.397
4591	-105.833
4592	-105.434
4593	-105.182
4594	-105.051
4595	-105.012
4596	-105.039
4597	-105.112
4598	-105.209
4599	-105.314
4600	-105.415
4601	-105.51
4602	-105.605
4603	-105.714
4604	-105.849
4605	-106.013
4606	-106.204
4607	-106.411
4608	-106.628
4609	-106.849
4610	-107.066
4611	-107.268
4612	-107.444
4613	-107.594
4614	-107.73
4615	-107.872
4616	-108.044
4617	-108.263
4618	-108.542
4619	-108.887
4620	-109.302
4621	-109.795
4622	-110.376
4623	-111.058
4624	-111.851
4625	-112.761
4626	-113.795
4627	-114.969
4628	-116.303
4629	-117.815
4630	-119.52
4631	-121.42
4632	-123.505
4633	-125.758
4634	-128.157
4635	-130.688
4636	-133.335
4637	-136.088
4638	-138.937
4639	-141.868
4640	-144.859
4641	-147.887
4642	-150.933
4643	-153.986
4644	-157.05
4645	-160.144
4646	-163.283
4647	-166.481
4648	-169.741
4649	-173.056
4650	-176.402
4651	-179.749
4652	-183.057
4653	-186.283
4654	-189.389
4655	-192.332
4656	-195.074
4657	-197.575
4658	-199.802
4659	-201.742
4660	-203.403
4661	-204.813
4662	-206.015
4663	-207.052
4664	-207.963
4665	-208.778
4666	-209.515
4667	-210.183
4668	-210.79
4669	-211.35
4670	-211.886
4671	-212.428
4672	-212.999
4673	-213.61
4674	-214.258
4675	-214.931
4676	-215.612
4677	-216.285
4678	-216.936
4679	-217.554
4680	-218.132
4681	-218.669
4682	-219.164
4683	-219.616
4684	-220.03
4685	-220.412
4686	-220.774
4687	-221.132
4688	-221.498
4689	-221.88
4690	-222.281
4691	-222.704
4692	-223.161
4693	-223.672
4694	-224.258
4695	-224.936
4696	-225.711
4697	-226.582
4698	-227.536
4699	-228.553
4700	-229.606
4701	-230.665
4702	-231.71
4703	-232.731
4704	-233.728
4705	-234.709
4706	-235.687
4707	-236.673
4708	-237.669
4709	-238.659
4710	-239.611
4711	-240.486
4712	-241.227
4713	-241.761
4714	-241.991
4715	-241.798
4716	-241.046
4717	-239.587
4718	-237.268
4719	-233.939
4720	-229.454
4721	-223.673
4722	-216.474
4723	-207.753
4724	-197.445
4725	-185.527
4726	-172.016
4727	-156.967
4728	-140.47
4729	-122.651
4730	-103.66
4731	-83.6589
4732	-62.8232
4733	-41.3399
4734	-19.4165
4735	2.71259
4736	24.7858
4737	46.5196
4738	67.6172
4739	87.777
4740	106.696
4741	124.074
4742	139.612
4743	153.036
4744	164.108
4745	172.642
4746	178.497
4747	181.579
4749	179.237
4750	173.814
4751	165.619
4752	154.742
4753	141.305
4754	125.461
4755	107.393
4756	87.3108
4757	65.4532
4758	42.0846
4759	17.4935
4760	-8.01132
4761	-34.1066
4762	-60.4618
4763	-86.7487
4764	-112.651
4765	-137.874
4766	-162.151
4767	-185.249
4768	-206.969
4769	-227.151
4770	-245.672
4771	-262.445
4772	-277.42
4773	-290.58
4774	-301.942
4775	-311.558
4776	-319.504
4777	-325.878
4778	-330.786
4779	-334.334
4780	-336.627
4781	-337.76
4782	-337.824
4783	-336.905
4784	-335.097
4785	-332.501
4786	-329.229
4787	-325.4
4788	-321.131
4789	-316.532
4790	-311.712
4791	-306.778
4792	-301.84
4793	-297.002
4794	-292.346
4795	-287.927
4796	-283.774
4797	-279.898
4798	-276.296
4799	-272.951
4800	-269.837
4801	-266.93
4802	-264.209
4803	-261.652
4804	-259.235
4805	-256.933
4806	-254.722
4807	-252.582
4808	-250.488
4809	-248.415
4810	-246.334
4811	-244.218
4812	-242.046
4813	-239.804
4814	-237.486
4815	-235.091
4816	-232.626
4817	-230.108
4818	-227.561
4819	-225.018
4820	-222.52
4821	-220.104
4822	-217.805
4823	-215.651
4824	-213.665
4825	-211.862
4826	-210.256
4827	-208.857
4828	-207.679
4829	-206.733
4830	-206.026
4831	-205.554
4832	-205.299
4833	-205.232
4834	-205.322
4835	-205.537
4836	-205.844
4837	-206.205
4838	-206.578
4839	-206.923
4840	-207.205
4841	-207.402
4842	-207.502
4843	-207.503
4844	-207.412
4845	-207.241
4846	-207.006
4847	-206.717
4848	-206.385
4849	-206.009
4850	-205.577
4851	-205.072
4852	-204.474
4853	-203.772
4854	-202.954
4855	-202.012
4856	-200.936
4857	-199.726
4858	-198.397
4859	-196.978
4860	-195.499
4861	-193.989
4862	-192.468
4863	-190.95
4864	-189.443
4865	-187.951
4866	-186.478
4867	-185.034
4868	-183.635
4869	-182.298
4870	-181.034
4871	-179.847
4872	-178.735
4873	-177.686
4874	-176.684
4875	-175.709
4876	-174.738
4877	-173.74
4878	-172.682
4879	-171.535
4880	-170.281
4881	-168.91
4882	-167.418
4883	-165.8
4884	-164.046
4885	-162.143
4886	-160.081
4887	-157.858
4888	-155.474
4889	-152.933
4890	-150.236
4891	-147.383
4892	-144.373
4893	-141.206
4894	-137.882
4895	-134.408
4896	-130.796
4897	-127.061
4898	-123.221
4899	-119.289
4900	-115.281
4901	-111.214
4902	-107.116
4903	-103.019
4904	-98.9603
4905	-94.9728
4906	-91.0822
4907	-87.3025
4908	-83.6357
4909	-80.0761
4910	-76.6155
4911	-73.2459
4912	-69.9604
4913	-66.7517
4914	-63.6086
4915	-60.513
4916	-57.44
4917	-54.36
4918	-51.2407
4919	-48.0527
4920	-44.7785
4921	-41.4164
4922	-37.977
4923	-34.4786
4924	-30.9456
4925	-27.4034
4926	-23.8699
4927	-20.349
4928	-16.8302
4929	-13.2933
4930	-9.71837
4931	-6.09423
4932	-2.42214
4933	1.2888
4934	5.0299
4935	8.79863
4936	12.5973
4937	16.4259
4938	20.2743
4939	24.123
4940	27.948
4941	31.7279
4942	35.446
4943	39.0892
4944	42.6429
4945	46.0875
4946	49.3991
4947	52.5586
4948	55.5621
4949	58.4223
4950	61.1592
4951	63.79
4952	66.3261
4953	68.7739
4954	71.1365
4955	73.4138
4956	75.6012
4957	77.6863
4958	79.6482
4959	81.4624
4960	83.1091
4961	84.5761
4962	85.8583
4963	86.9565
4964	87.8769
4965	88.628
4966	89.2165
4967	89.6414
4968	89.8906
4969	89.9446
4970	89.7861
4971	89.4019
4972	88.7698
4973	87.8464
4974	86.5723
4975	84.8902
4976	82.7599
4977	80.1606
4978	77.0888
4979	73.5544
4980	69.5784
4981	65.1881
4982	60.4125
4983	55.28
4984	49.8148
4985	44.0356
4986	37.955
4987	31.5815
4988	24.921
4989	17.9778
4990	10.7578
4991	3.27352
4992	-4.45661
4993	-12.4112
4994	-20.5691
4995	-28.9077
4996	-37.3965
4997	-45.9939
4998	-54.6489
4999	-63.3066
5000	-71.9147
5001	-80.4277
5002	-88.8096
5003	-97.0346
5004	-105.087
5005	-112.961
5006	-120.658
5007	-128.186
5008	-135.549
5009	-142.754
5010	-149.806
5011	-156.714
5012	-163.493
5013	-170.162
5014	-176.738
5015	-183.231
5016	-189.646
5017	-195.987
5018	-202.262
5019	-208.473
5020	-214.615
5021	-220.675
5022	-226.625
5023	-232.435
5024	-238.081
5025	-243.546
5026	-248.824
5027	-253.912
5028	-258.811
5029	-263.526
5030	-268.068
5031	-272.451
5032	-276.683
5033	-280.778
5034	-284.749
5035	-288.616
5036	-292.393
5037	-296.086
5038	-299.695
5039	-303.215
5040	-306.637
5041	-309.943
5042	-313.106
5043	-316.1
5044	-318.901
5045	-321.493
5046	-323.867
5047	-326.02
5048	-327.959
5049	-329.691
5050	-331.232
5051	-332.6
5052	-333.817
5053	-334.899
5054	-335.852
5055	-336.676
5056	-337.379
5057	-337.97
5058	-338.469
5059	-338.894
5060	-339.264
5061	-339.598
5062	-339.91
5063	-340.207
5064	-340.489
5065	-340.746
5066	-340.973
5067	-341.17
5068	-341.346
5069	-341.516
5070	-341.689
5071	-341.877
5072	-342.091
5073	-342.343
5074	-342.645
5075	-343.006
5076	-343.428
5077	-343.902
5078	-344.413
5079	-344.939
5080	-345.447
5081	-345.898
5082	-346.262
5083	-346.517
5084	-346.657
5085	-346.687
5086	-346.622
5087	-346.483
5088	-346.292
5089	-346.064
5090	-345.82
5091	-345.586
5092	-345.394
5093	-345.272
5094	-345.246
5095	-345.334
5096	-345.542
5097	-345.867
5098	-346.296
5099	-346.81
5100	-347.393
5101	-348.037
5102	-348.738
5103	-349.493
5104	-350.298
5105	-351.146
5106	-352.031
5107	-352.953
5108	-353.915
5109	-354.925
5110	-355.996
5111	-357.143
5112	-358.379
5113	-359.705
5114	-361.107
5115	-362.556
5116	-364.02
5117	-365.465
5118	-366.854
5119	-368.151
5120	-369.323
5121	-370.351
5122	-371.224
5123	-371.94
5124	-372.492
5125	-372.874
5126	-373.078
5127	-373.103
5128	-372.948
5129	-372.616
5130	-372.114
5131	-371.456
5132	-370.671
5133	-369.793
5134	-368.859
5135	-367.901
5136	-366.947
5137	-366.027
5138	-365.175
5139	-364.432
5140	-363.843
5141	-363.439
5142	-363.237
5143	-363.233
5144	-363.405
5145	-363.726
5146	-364.162
5147	-364.676
5148	-365.231
5149	-365.791
5150	-366.322
5151	-366.799
5152	-367.204
5153	-367.532
5154	-367.78
5155	-367.951
5156	-368.057
5157	-368.116
5158	-368.146
5159	-368.165
5160	-368.184
5161	-368.217
5162	-368.282
5163	-368.395
5164	-368.571
5165	-368.823
5166	-369.159
5167	-369.585
5168	-370.103
5169	-370.706
5170	-371.377
5171	-372.093
5172	-372.829
5173	-373.574
5174	-374.327
5175	-375.096
5176	-375.894
5177	-376.734
5178	-377.626
5179	-378.575
5180	-379.566
5181	-380.567
5182	-381.532
5183	-382.417
5184	-383.186
5185	-383.817
5186	-384.303
5187	-384.655
5188	-384.902
5189	-385.088
5190	-385.262
5191	-385.461
5192	-385.707
5193	-386.004
5194	-386.349
5195	-386.729
5196	-387.134
5197	-387.553
5198	-387.975
5199	-388.394
5200	-388.803
5201	-389.204
5202	-389.604
5203	-390.014
5204	-390.444
5205	-390.903
5206	-391.394
5207	-391.917
5208	-392.472
5209	-393.066
5210	-393.707
5211	-394.405
5212	-395.16
5213	-395.975
5214	-396.851
5215	-397.787
5216	-398.777
5217	-399.81
5218	-400.873
5219	-401.952
5220	-403.039
5221	-404.126
5222	-405.205
5223	-406.268
5224	-407.311
5225	-408.337
5226	-409.356
5227	-410.376
5228	-411.403
5229	-412.437
5230	-413.484
5231	-414.55
5232	-415.642
5233	-416.758
5234	-417.888
5235	-419.009
5236	-420.093
5237	-421.113
5238	-422.049
5239	-422.888
5240	-423.626
5241	-424.262
5242	-424.807
5243	-425.279
5244	-425.707
5245	-426.124
5246	-426.561
5247	-427.035
5248	-427.543
5249	-428.07
5250	-428.591
5251	-429.087
5252	-429.555
5253	-430.004
5254	-430.451
5255	-430.904
5256	-431.357
5257	-431.793
5258	-432.203
5259	-432.58
5260	-432.923
5261	-433.236
5262	-433.527
5263	-433.807
5264	-434.081
5265	-434.346
5266	-434.597
5267	-434.829
5268	-435.038
5269	-435.22
5270	-435.375
5271	-435.515
5272	-435.654
5273	-435.807
5274	-435.986
5275	-436.198
5276	-436.446
5277	-436.729
5278	-437.036
5279	-437.35
5280	-437.659
5281	-437.95
5282	-438.215
5283	-438.444
5284	-438.629
5285	-438.769
5286	-438.87
5287	-438.949
5288	-439.028
5289	-439.137
5290	-439.304
5291	-439.548
5292	-439.883
5293	-440.312
5294	-440.837
5295	-441.451
5296	-442.142
5297	-442.9
5298	-443.718
5299	-444.591
5300	-445.512
5301	-446.47
5302	-447.453
5303	-448.457
5304	-449.48
5305	-450.52
5306	-451.565
5307	-452.599
5308	-453.601
5309	-454.548
5310	-455.429
5311	-456.245
5312	-457.005
5313	-457.724
5314	-458.418
5315	-459.107
5316	-459.808
5317	-460.529
5318	-461.273
5319	-462.028
5320	-462.785
5321	-463.532
5322	-464.269
5323	-464.998
5324	-465.728
5325	-466.468
5326	-467.223
5327	-467.994
5328	-468.768
5329	-469.523
5330	-470.242
5331	-470.911
5332	-471.527
5333	-472.096
5334	-472.631
5335	-473.149
5336	-473.663
5337	-474.176
5338	-474.69
5339	-475.203
5340	-475.71
5341	-476.203
5342	-476.664
5343	-477.073
5344	-477.404
5345	-477.627
5346	-477.718
5347	-477.659
5348	-477.441
5349	-477.064
5350	-476.541
5351	-475.894
5352	-475.146
5353	-474.318
5354	-473.427
5355	-472.488
5356	-471.523
5357	-470.545
5358	-469.565
5359	-468.592
5360	-467.635
5361	-466.709
5362	-465.824
5363	-464.989
5364	-464.206
5365	-463.48
5366	-462.813
5367	-462.209
5368	-461.674
5369	-461.213
5370	-460.824
5371	-460.502
5372	-460.238
5373	-460.023
5374	-459.853
5375	-459.728
5376	-459.649
5377	-459.609
5378	-459.59
5379	-459.567
5380	-459.514
5381	-459.41
5382	-459.246
5383	-459.033
5384	-458.788
5385	-458.537
5386	-458.299
5387	-458.082
5388	-457.877
5389	-457.659
5390	-457.402
5391	-457.088
5392	-456.713
5393	-456.288
5394	-455.822
5395	-455.328
5396	-454.818
5397	-454.309
5398	-453.815
5399	-453.346
5400	-452.905
5401	-452.485
5402	-452.078
5403	-451.674
5404	-451.258
5405	-450.821
5406	-450.36
5407	-449.877
5408	-449.38
5409	-448.877
5410	-448.386
5411	-447.929
5412	-447.527
5413	-447.201
5414	-446.968
5415	-446.846
5416	-446.846
5417	-446.978
5418	-447.249
5419	-447.654
5420	-448.18
5421	-448.811
5422	-449.534
5423	-450.344
5424	-451.233
5425	-452.195
5426	-453.221
5427	-454.301
5428	-455.429
5429	-456.596
5430	-457.792
5431	-459.013
5432	-460.257
5433	-461.532
5434	-462.853
5435	-464.242
5436	-465.722
5437	-467.309
5438	-469.008
5439	-470.817
5440	-472.721
5441	-474.695
5442	-476.715
5443	-478.759
5444	-480.81
5445	-482.866
5446	-484.924
5447	-486.981
5448	-489.025
5449	-491.03
5450	-492.963
5451	-494.79
5452	-496.49
5453	-498.054
5454	-499.483
5455	-500.779
5456	-501.944
5457	-502.982
5458	-503.91
5459	-504.758
5460	-505.564
5461	-506.363
5462	-507.18
5463	-508.03
5464	-508.923
5465	-509.867
5466	-510.872
5467	-511.944
5468	-513.081
5469	-514.271
5470	-515.494
5471	-516.733
5472	-517.976
5473	-519.209
5474	-520.417
5475	-521.583
5476	-522.699
5477	-523.763
5478	-524.777
5479	-525.746
5480	-526.671
5481	-527.549
5482	-528.375
5483	-529.152
5484	-529.89
5485	-530.607
5486	-531.315
5487	-532.016
5488	-532.703
5489	-533.363
5490	-533.981
5491	-534.546
5492	-535.046
5493	-535.472
5494	-535.811
5495	-536.051
5496	-536.179
5497	-536.185
5498	-536.072
5499	-535.861
5500	-535.59
5501	-535.297
5502	-535.018
5503	-534.771
5504	-534.56
5505	-534.379
5506	-534.217
5507	-534.063
5508	-533.909
5509	-533.758
5510	-533.621
5511	-533.513
5512	-533.457
5513	-533.473
5514	-533.575
5515	-533.758
5516	-533.991
5517	-534.221
5518	-534.373
5519	-534.361
5520	-534.082
5521	-533.409
5522	-532.2
5523	-530.297
5524	-527.536
5525	-523.752
5526	-518.784
5527	-512.488
5528	-504.743
5529	-495.454
5530	-484.566
5531	-472.067
5532	-457.989
5533	-442.4
5534	-425.397
5535	-407.103
5536	-387.665
5537	-367.25
5538	-346.044
5539	-324.245
5540	-302.064
5541	-279.737
5542	-257.522
5543	-235.693
5544	-214.532
5545	-194.317
5546	-175.335
5547	-157.877
5548	-142.233
5549	-128.679
5550	-117.465
5551	-108.8
5553	-99.7281
5554	-99.519
5555	-102.253
5556	-107.925
5557	-116.492
5558	-127.881
5559	-141.987
5560	-158.665
5561	-177.729
5562	-198.951
5563	-222.062
5564	-246.765
5565	-272.733
5566	-299.618
5567	-327.052
5568	-354.659
5569	-382.066
5570	-408.919
5571	-434.898
5572	-459.724
5573	-483.159
5574	-505.011
5575	-525.134
5576	-543.43
5577	-559.848
5578	-574.377
5579	-587.039
5580	-597.885
5581	-606.981
5582	-614.4
5583	-620.223
5584	-624.538
5585	-627.432
5586	-628.992
5587	-629.311
5588	-628.483
5589	-626.615
5590	-623.821
5591	-620.223
5592	-615.948
5593	-611.111
5594	-605.818
5595	-600.162
5596	-594.233
5597	-588.118
5598	-581.903
5599	-575.673
5600	-569.507
5601	-563.482
5602	-557.67
5603	-552.132
5604	-546.912
5605	-542.04
5606	-537.535
5607	-533.41
5608	-529.665
5609	-526.294
5610	-523.28
5611	-520.598
5612	-518.214
5613	-516.084
5614	-514.162
5615	-512.403
5616	-510.767
5617	-509.218
5618	-507.716
5619	-506.221
5620	-504.695
5621	-503.11
5622	-501.454
5623	-499.735
5624	-497.966
5625	-496.164
5626	-494.344
5627	-492.522
5628	-490.713
5629	-488.929
5630	-487.179
5631	-485.468
5632	-483.801
5633	-482.185
5634	-480.633
5635	-479.164
5636	-477.801
5637	-476.568
5638	-475.482
5639	-474.554
5640	-473.79
5641	-473.182
5642	-472.716
5643	-472.366
5644	-472.104
5645	-471.897
5646	-471.709
5647	-471.496
5648	-471.214
5649	-470.817
5650	-470.267
5651	-469.536
5652	-468.607
5653	-467.481
5654	-466.178
5655	-464.724
5656	-463.148
5657	-461.472
5658	-459.715
5659	-457.895
5660	-456.036
5661	-454.152
5662	-452.236
5663	-450.255
5664	-448.155
5665	-445.873
5666	-443.352
5667	-440.537
5668	-437.376
5669	-433.831
5670	-429.878
5671	-425.508
5672	-420.726
5673	-415.546
5674	-409.999
5675	-404.129
5676	-397.988
5677	-391.635
5678	-385.135
5679	-378.557
5680	-371.965
5681	-365.421
5682	-358.968
5683	-352.613
5684	-346.316
5685	-340.013
5686	-333.656
5687	-327.236
5688	-320.784
5689	-314.342
5690	-307.939
5691	-301.574
5692	-295.206
5693	-288.75
5694	-282.083
5695	-275.036
5696	-267.399
5697	-258.936
5698	-249.408
5699	-238.611
5700	-226.415
5701	-212.783
5702	-197.79
5703	-181.618
5704	-164.555
5705	-146.947
5706	-129.123
5707	-111.324
5708	-93.6644
5709	-76.1204
5710	-58.5176
5711	-40.5469
5712	-21.8299
5713	-2.04009
5714	18.9531
5715	40.9715
5716	63.4958
5717	85.7196
5718	106.662
5719	125.309
5720	140.763
5721	152.373
5722	159.808
5723	163.053
5724	162.35
5725	158.116
5726	150.852
5727	141.054
5728	129.163
5729	115.579
5730	100.763
5731	85.332
5732	70.0159
5733	55.4732
5734	42.1099
5735	30.0027
5736	18.9093
5737	8.32696
5738	-2.40913
5739	-14.0023
5740	-27.0326
5741	-41.7333
5742	-57.7905
5743	-74.3226
5744	-90.0926
5745	-103.858
5746	-114.719
5747	-122.368
5748	-127.217
5749	-130.369
5750	-133.419
5751	-138.097
5752	-145.9
5753	-157.873
5754	-174.532
5755	-195.852
5756	-221.291
5757	-249.907
5758	-280.562
5759	-312.173
5760	-343.921
5761	-375.319
5762	-406.097
5763	-435.993
5764	-464.635
5765	-491.538
5766	-516.158
5767	-537.975
5768	-556.618
5769	-571.998
5770	-584.311
5771	-593.874
5772	-600.917
5773	-605.516
5774	-607.687
5775	-607.513
5776	-605.175
5777	-600.859
5778	-594.64
5779	-586.453
5780	-576.18
5781	-563.775
5782	-549.364
5783	-533.298
5784	-516.171
5785	-498.833
5786	-482.326
5787	-467.7
5788	-455.8
5789	-447.229
5790	-442.478
5791	-441.986
5792	-445.98
5793	-454.258
5794	-466.083
5795	-480.301
5796	-495.688
5797	-511.367
5798	-527.057
5799	-543
5800	-559.583
5801	-576.948
5802	-594.837
5803	-612.69
5804	-629.842
5805	-645.698
5806	-659.853
5807	-672.172
5808	-682.847
5809	-692.392
5810	-701.552
5811	-711.155
5812	-721.953
5813	-734.463
5814	-748.781
5815	-764.49
5816	-780.737
5817	-796.429
5818	-810.456
5819	-821.913
5820	-830.299
5821	-835.581
5822	-838.111
5823	-838.468
5824	-837.319
5825	-835.299
5826	-832.905
5827	-830.446
5828	-828.058
5829	-825.739
5830	-823.376
5831	-820.722
5832	-817.313
5833	-812.432
5834	-805.242
5835	-794.983
5836	-781.113
5837	-763.41
5838	-742.138
5839	-718.148
5840	-692.773
5841	-667.575
5842	-644.115
5843	-623.788
5844	-607.663
5845	-596.303
5846	-589.662
5847	-587.128
5848	-587.755
5849	-590.603
5850	-595.037
5851	-600.863
5852	-608.285
5853	-617.765
5854	-629.823
5855	-644.807
5856	-662.684
5857	-682.942
5858	-704.605
5859	-726.332
5860	-746.561
5861	-763.678
5862	-776.246
5863	-783.253
5864	-784.347
5865	-779.938
5866	-771.074
5867	-759.157
5868	-745.672
5869	-732.03
5870	-719.473
5871	-709.033
5872	-701.462
5873	-697.117
5874	-695.878
5875	-697.233
5876	-700.518
5877	-705.121
5878	-710.542
5879	-716.341
5880	-722.102
5881	-727.389
5882	-731.734
5883	-734.707
5884	-736.045
5885	-735.751
5886	-734.093
5887	-731.482
5888	-728.295
5889	-724.735
5890	-720.827
5891	-716.503
5892	-711.681
5893	-706.278
5894	-700.191
5895	-693.249
5896	-685.175
5897	-675.611
5898	-664.213
5899	-650.764
5900	-635.232
5901	-617.721
5902	-598.333
5903	-577.06
5904	-553.893
5905	-529.124
5906	-503.594
5907	-478.631
5908	-455.688
5909	-435.948
5910	-420.102
5911	-408.341
5912	-400.491
5913	-396.202
5914	-395.116
5915	-396.982
5916	-401.665
5917	-409.046
5918	-418.89
5919	-430.761
5920	-444.008
5921	-457.844
5922	-471.491
5923	-484.335
5924	-495.999
5925	-506.293
5926	-515.129
5927	-522.477
5928	-528.382
5929	-532.983
5930	-536.5
5931	-539.171
5932	-541.2
5933	-542.701
5934	-543.662
5935	-543.937
5936	-543.311
5937	-541.59
5938	-538.7
5939	-534.737
5940	-529.913
5941	-524.438
5942	-518.414
5943	-511.769
5944	-504.245
5945	-495.541
5946	-485.545
5947	-474.497
5948	-462.976
5949	-451.798
5950	-441.849
5951	-433.91
5952	-428.532
5953	-425.993
5954	-426.314
5955	-429.309
5956	-434.664
5957	-442.035
5958	-451.121
5959	-461.663
5960	-473.409
5961	-486.116
5962	-499.614
5963	-513.847
5964	-528.817
5965	-544.398
5966	-560.131
5967	-575.153
5968	-588.307
5969	-598.43
5970	-604.711
5971	-606.93
5972	-605.503
5973	-601.363
5974	-595.749
5975	-589.933
5976	-585.013
5977	-581.796
5978	-580.718
5979	-581.759
5980	-584.424
5981	-587.858
5982	-591.112
5983	-593.474
5984	-594.673
5985	-594.876
5986	-594.524
5987	-594.146
5988	-594.239
5989	-595.185
5990	-597.157
5991	-600.044
5992	-603.435
5993	-606.654
5994	-608.848
5995	-609.135
5996	-606.809
5997	-601.478
5998	-593.067
5999	-581.727
6000	-567.784
6001	-551.742
6002	-534.307
6003	-516.346
6004	-498.735
6005	-482.156
6006	-466.991
6007	-453.379
6008	-441.363
6009	-431.032
6010	-422.601
6011	-416.384
6012	-412.69
6013	-411.721
6014	-413.533
6015	-418.041
6016	-425.03
6017	-434.183
6018	-445.161
6019	-457.668
6020	-471.451
6021	-486.276
6022	-501.922
6023	-518.227
6024	-535.106
6025	-552.532
6026	-570.481
6027	-588.868
6028	-607.471
6029	-625.854
6030	-643.337
6031	-659.018
6032	-671.872
6033	-680.942
6034	-685.556
6035	-685.526
6036	-681.207
6037	-673.394
6038	-663.115
6039	-651.39
6040	-639.069
6041	-626.755
6042	-614.774
6043	-603.224
6044	-592.103
6045	-581.425
6046	-571.216
6047	-561.449
6048	-552.001
6049	-542.642
6050	-533.098
6051	-523.145
6052	-512.647
6053	-501.565
6054	-490.062
6055	-478.635
6056	-468.135
6057	-459.547
6058	-453.677
6059	-450.911
6060	-451.167
6061	-454.051
6062	-459.147
6063	-466.275
6064	-475.594
6065	-487.496
6066	-502.354
6067	-520.282
6068	-541.014
6069	-563.945
6070	-588.294
6071	-613.289
6072	-638.279
6073	-662.722
6074	-686.132
6075	-708.036
6076	-728.025
6077	-745.819
6078	-761.225
6079	-774.01
6080	-783.815
6081	-790.201
6082	-792.757
6083	-791.217
6084	-785.554
6085	-776.012
6086	-763.054
6087	-747.239
6088	-729.062
6089	-708.837
6090	-686.73
6091	-662.931
6092	-637.838
6093	-612.16
6094	-586.9
6095	-563.205
6096	-542.116
6097	-524.303
6098	-509.909
6099	-498.535
6100	-489.413
6101	-481.696
6102	-474.752
6103	-468.336
6104	-462.588
6105	-457.899
6106	-454.632
6107	-452.816
6108	-452
6109	-451.394
6110	-450.307
6111	-448.572
6112	-446.661
6113	-445.432
6114	-445.801
6115	-448.527
6116	-454.136
6117	-462.854
6118	-474.585
6119	-488.973
6120	-505.575
6121	-524.04
6122	-544.152
6123	-565.741
6124	-588.547
6125	-612.128
6126	-635.827
6127	-658.835
6128	-680.314
6129	-699.56
6130	-716.082
6131	-729.569
6132	-739.817
6133	-746.747
6134	-750.43
6135	-751.076
6136	-748.989
6137	-744.568
6138	-738.312
6139	-730.775
6140	-722.484
6141	-713.826
6142	-704.979
6143	-695.929
6144	-686.617
6145	-677.084
6146	-667.482
6147	-657.967
6148	-648.615
6149	-639.427
6150	-630.394
6151	-621.553
6152	-612.977
6153	-604.747
6154	-596.931
6155	-589.613
6156	-582.955
6157	-577.238
6158	-572.801
6159	-569.875
6160	-568.404
6161	-567.939
6162	-567.642
6163	-566.405
6164	-563.169
6165	-557.347
6166	-549.092
6167	-539.216
6168	-528.874
6169	-519.234
6170	-511.294
6171	-505.84
6172	-503.48
6173	-504.656
6174	-509.63
6175	-518.439
6176	-530.87
6177	-546.48
6178	-564.62
6179	-584.469
6180	-605.094
6181	-625.506
6182	-644.691
6183	-661.65
6184	-675.487
6185	-685.563
6186	-691.628
6187	-693.832
6188	-692.59
6189	-688.382
6190	-681.572
6191	-672.329
6192	-660.7
6193	-646.795
6194	-630.974
6195	-613.891
6196	-596.436
6197	-579.616
6198	-564.38
6199	-551.471
6200	-541.375
6201	-534.36
6202	-530.481
6203	-529.563
6204	-531.199
6205	-534.761
6206	-539.447
6207	-544.4
6208	-548.859
6209	-552.227
6210	-554.035
6211	-553.94
6212	-551.832
6213	-547.905
6214	-542.566
6215	-536.218
6216	-529.083
6217	-521.15
6218	-512.254
6219	-502.271
6220	-491.342
6221	-479.966
6222	-468.907
6223	-459.006
6224	-451.035
6225	-445.598
6226	-443.04
6227	-443.38
6228	-446.32
6229	-451.338
6230	-457.852
6231	-465.385
6232	-473.619
6233	-482.316
6234	-491.17
6235	-499.669
6236	-507.061
6237	-512.452
6238	-515.047
6239	-514.437
6240	-510.762
6241	-504.628
6242	-496.846
6243	-488.152
6244	-479.057
6245	-469.795
6246	-460.383
6247	-450.788
6248	-441.099
6249	-431.63
6250	-422.931
6251	-415.692
6252	-410.563
6253	-407.956
6254	-407.944
6255	-410.299
6256	-414.627
6257	-420.515
6258	-427.62
6259	-435.707
6260	-444.639
6261	-454.325
6262	-464.673
6263	-475.562
6264	-486.838
6265	-498.315
6266	-509.777
6267	-520.938
6268	-531.378
6269	-540.544
6270	-547.847
6271	-552.783
6272	-555.066
6273	-554.735
6274	-552.143
6275	-547.857
6276	-542.542
6277	-536.856
6278	-531.3
6279	-526.069
6280	-520.968
6281	-515.472
6282	-508.945
6283	-500.911
6284	-491.233
6285	-480.085
6286	-467.753
6287	-454.411
6288	-440.037
6289	-424.536
6290	-407.96
6291	-390.703
6292	-373.533
6293	-357.486
6294	-343.658
6295	-332.997
6296	-326.154
6297	-323.43
6298	-324.808
6299	-330.032
6300	-338.647
6301	-349.94
6302	-362.87
6303	-376.098
6304	-388.154
6305	-397.635
6306	-403.435
6307	-404.981
6308	-402.379
6309	-396.355
6310	-387.992
6311	-378.441
6312	-368.707
6313	-359.522
6314	-351.313
6315	-344.291
6316	-338.589
6317	-334.36
6318	-331.809
6319	-331.156
6320	-332.578
6321	-336.15
6322	-341.817
6323	-349.391
6324	-358.6
6325	-369.136
6326	-380.662
6327	-392.784
6328	-405.018
6329	-416.765
6330	-427.303
6331	-435.822
6332	-441.534
6333	-443.832
6334	-442.404
6335	-437.234
6336	-428.554
6337	-416.811
6338	-402.658
6339	-386.891
6340	-370.304
6341	-353.538
6342	-337.031
6343	-321.079
6344	-305.938
6345	-291.895
6346	-279.291
6347	-268.511
6348	-259.933
6349	-253.827
6350	-250.249
6351	-248.974
6352	-249.516
6353	-251.194
6354	-253.232
6355	-254.881
6356	-255.528
6357	-254.749
6358	-252.275
6359	-247.945
6360	-241.68
6361	-233.442
6362	-223.165
6363	-210.695
6364	-195.787
6365	-178.194
6366	-157.819
6367	-134.884
6368	-109.975
6369	-83.9346
6370	-57.6864
6371	-32.0875
6372	-7.85655
6373	14.4446
6374	34.4036
6375	51.742
6376	66.2961
6377	77.9954
6378	86.838
6379	92.8701
6380	96.1772
6381	96.8814
6382	95.1337
6383	91.0983
6384	84.9295
6385	76.7502
6386	66.6497
6387	54.7085
6388	41.037
6389	25.8037
6390	9.241
6391	-8.37027
6392	-26.7254
6393	-45.5149
6394	-64.4314
6395	-83.1709
6396	-101.436
6397	-118.949
6398	-135.468
6399	-150.799
6400	-164.807
6401	-177.419
6402	-188.626
6403	-198.463
6404	-206.994
6405	-214.289
6406	-220.419
6407	-225.444
6408	-229.421
6409	-232.393
6410	-234.386
6411	-235.421
6412	-235.516
6413	-234.706
6414	-233.042
6415	-230.595
6416	-227.449
6417	-223.68
6418	-219.347
6419	-214.489
6420	-209.143
6421	-203.36
6422	-197.206
6423	-190.769
6424	-184.156
6425	-177.496
6426	-170.918
6427	-164.523
6428	-158.357
6429	-152.4
6430	-146.576
6431	-140.797
6432	-135.002
6433	-129.183
6434	-123.367
6435	-117.591
6436	-111.88
6437	-106.256
6438	-100.729
6439	-95.2936
6440	-89.9089
6441	-84.5136
6442	-79.0523
6443	-73.4953
6444	-67.8384
6445	-62.0958
6446	-56.2947
6447	-50.4678
6448	-44.6401
6449	-38.8194
6450	-32.9996
6451	-27.1646
6452	-21.2865
6453	-15.324
6454	-9.23617
6455	-3.00285
6456	3.36695
6457	9.84488
6458	16.4012
6459	23.0186
6460	29.6942
6461	36.4326
6462	43.2429
6463	50.1435
6464	57.1671
6465	64.3698
6466	71.8364
6467	79.6591
6468	87.8972
6469	96.5537
6470	105.587
6471	114.939
6472	124.559
6473	134.409
6474	144.458
6475	154.669
6476	164.991
6477	175.353
6478	185.673
6479	195.863
6480	205.848
6481	215.581
6482	225.063
6483	234.328
6484	243.423
6485	252.381
6486	261.21
6487	269.909
6488	278.493
6489	287.026
6490	295.618
6491	304.401
6492	313.491
6493	322.968
6494	332.873
6495	343.213
6496	353.973
6497	365.129
6498	376.645
6499	388.468
6500	400.526
6501	412.719
6502	424.91
6503	436.946
6504	448.675
6505	459.967
6506	470.717
6507	480.841
6508	490.273
6509	498.984
6510	506.978
6511	514.305
6512	521.049
6513	527.332
6514	533.3
6515	539.089
6516	544.806
6517	550.52
6518	556.267
6519	562.053
6520	567.87
6521	573.726
6522	579.655
6523	585.71
6524	591.93
6525	598.331
6526	604.909
6527	611.66
6528	618.588
6529	625.71
6530	633.041
6531	640.593
6532	648.363
6533	656.335
6534	664.484
6535	672.79
6536	681.232
6537	689.801
6538	698.483
6539	707.263
6540	716.115
6541	724.996
6542	733.851
6543	742.617
6544	751.236
6545	759.675
6546	767.93
6547	776.037
6548	784.064
6549	792.087
6550	800.167
6551	808.336
6552	816.603
6553	824.968
6554	833.419
6555	841.934
6556	850.482
6557	859.026
6558	867.538
6559	876.005
6560	884.418
6561	892.759
6562	900.999
6563	909.103
6564	917.043
6565	924.794
6566	932.336
6567	939.648
6568	946.712
6569	953.508
6570	960.022
6571	966.243
6572	972.165
6573	977.789
6574	983.124
6575	988.184
6576	992.989
6577	997.572
6578	1001.98
6579	1006.28
6580	1010.51
6581	1014.72
6582	1018.89
6583	1023.02
6584	1027.07
6585	1031.04
6586	1034.9
6587	1038.62
6588	1042.15
6589	1045.47
6590	1048.53
6591	1051.34
6592	1053.88
6593	1056.12
6594	1058.05
6595	1059.62
6596	1060.8
6597	1061.59
6598	1062
6599	1062.01
6600	1061.63
6601	1060.86
6602	1059.68
6603	1058.11
6604	1056.17
6605	1053.88
6606	1051.26
6607	1048.32
6608	1045.04
6609	1041.44
6610	1037.53
6611	1033.33
6612	1028.87
6613	1024.18
6614	1019.32
6615	1014.32
6616	1009.21
6617	1004.01
6618	998.757
6619	993.432
6620	988.026
6621	982.517
6622	976.886
6623	971.126
6624	965.239
6625	959.231
6626	953.109
6627	946.872
6628	940.523
6629	934.064
6630	927.504
6631	920.852
6632	914.119
6633	907.317
6634	900.464
6635	893.585
6636	886.713
6637	879.879
6638	873.119
6639	866.466
6640	859.952
6641	853.598
6642	847.411
6643	841.388
6644	835.519
6645	829.791
6646	824.191
6647	818.707
6648	813.329
6649	808.047
6650	802.848
6651	797.718
6652	792.641
6653	787.604
6654	782.591
6655	777.592
6656	772.595
6657	767.599
6658	762.607
6659	757.629
6660	752.684
6661	747.793
6662	742.98
6663	738.27
6664	733.684
6665	729.242
6666	724.956
6667	720.823
6668	716.825
6669	712.931
6670	709.105
6671	705.32
6672	701.558
6673	697.815
6674	694.087
6675	690.362
6676	686.627
6677	682.877
6678	679.127
6679	675.408
6680	671.761
6681	668.232
6682	664.874
6683	661.738
6684	658.869
6685	656.301
6686	654.053
6687	652.135
6688	650.542
6689	649.249
6690	648.212
6691	647.375
6692	646.683
6693	646.088
6694	645.545
6695	645.008
6696	644.427
6697	643.758
6698	642.96
6699	642.003
6700	640.869
6701	639.552
6702	638.057
6703	636.4
6704	634.606
6705	632.712
6706	630.759
6707	628.797
6708	626.885
6709	625.084
6710	623.454
6711	622.044
6712	620.893
6713	620.025
6714	619.455
6715	619.184
6716	619.205
6717	619.496
6718	620.013
6719	620.692
6720	621.46
6721	622.245
6722	622.99
6723	623.655
6724	624.219
6725	624.665
6726	624.979
6727	625.149
6728	625.169
6729	625.045
6730	624.787
6731	624.4
6732	623.881
6733	623.222
6734	622.427
6735	621.521
6736	620.542
6737	619.526
6738	618.505
6739	617.504
6740	616.538
6741	615.617
6742	614.741
6743	613.908
6744	613.123
6745	612.392
6746	611.718
6747	611.099
6748	610.524
6749	609.973
6750	609.42
6751	608.835
6752	608.189
6753	607.457
6754	606.616
6755	605.653
6756	604.56
6757	603.339
6758	602.002
6759	600.562
6760	599.037
6761	597.447
6762	595.811
6763	594.15
6764	592.486
6765	590.837
6766	589.223
6767	587.661
6768	586.177
6769	584.803
6770	583.573
6771	582.508
6772	581.614
6773	580.87
6774	580.244
6775	579.701
6776	579.21
6777	578.743
6778	578.276
6779	577.798
6780	577.302
6781	576.786
6782	576.242
6783	575.651
6784	574.981
6785	574.195
6786	573.257
6787	572.142
6788	570.841
6789	569.361
6790	567.718
6791	565.933
6792	564.03
6793	562.043
6794	560.015
6795	557.994
6796	556.033
6797	554.176
6798	552.469
6799	550.957
6800	549.68
6801	548.664
6802	547.913
6803	547.406
6804	547.11
6805	546.987
6806	546.992
6807	547.078
6808	547.201
6809	547.321
6810	547.407
6811	547.427
6812	547.352
6813	547.16
6814	546.84
6815	546.388
6816	545.81
6817	545.114
6818	544.311
6819	543.413
6820	542.439
6821	541.416
6822	540.381
6823	539.384
6824	538.475
6825	537.693
6826	537.051
6827	536.537
6828	536.116
6829	535.74
6830	535.359
6831	534.928
6832	534.413
6833	533.793
6834	533.061
6835	532.224
6836	531.294
6837	530.287
6838	529.218
6839	528.094
6840	526.918
6841	525.689
6842	524.402
6843	523.058
6844	521.666
6845	520.237
6846	518.783
6847	517.31
6848	515.817
6849	514.293
6850	512.724
6851	511.099
6852	509.416
6853	507.688
6854	505.942
6855	504.211
6856	502.533
6857	500.942
6858	499.468
6859	498.137
6860	496.973
6861	495.988
6862	495.178
6863	494.52
6864	493.971
6865	493.483
6866	493.005
6867	492.489
6868	491.893
6869	491.184
6870	490.334
6871	489.322
6872	488.135
6873	486.766
6874	485.22
6875	483.514
6876	481.679
6877	479.759
6878	477.804
6879	475.863
6880	473.982
6881	472.196
6882	470.536
6883	469.022
6884	467.663
6885	466.462
6886	465.423
6887	464.552
6888	463.853
6889	463.32
6890	462.932
6891	462.653
6892	462.446
6893	462.276
6894	462.114
6895	461.942
6896	461.751
6897	461.546
6898	461.343
6899	461.162
6900	461.019
6901	460.923
6902	460.875
6903	460.864
6904	460.872
6905	460.876
6906	460.856
6907	460.797
6908	460.692
6909	460.543
6910	460.35
6911	460.115
6912	459.835
6913	459.5
6914	459.097
6915	458.612
6916	458.04
6917	457.385
6918	456.664
6919	455.892
6920	455.082
6921	454.232
6922	453.332
6923	452.36
6924	451.297
6925	450.139
6926	448.899
6927	447.605
6928	446.294
6929	445.006
6930	443.78
6931	442.651
6932	441.648
6933	440.788
6934	440.079
6935	439.512
6936	439.066
6937	438.701
6938	438.374
6939	438.038
6940	437.659
6941	437.213
6942	436.69
6943	436.096
6944	435.442
6945	434.744
6946	434.028
6947	433.327
6948	432.675
6949	432.099
6950	431.617
6951	431.232
6952	430.942
6953	430.736
6954	430.604
6955	430.537
6956	430.524
6957	430.552
6958	430.603
6959	430.66
6960	430.703
6961	430.711
6962	430.664
6963	430.542
6964	430.329
6965	430.008
6966	429.563
6967	428.985
6968	428.281
6969	427.471
6970	426.583
6971	425.639
6972	424.659
6973	423.656
6974	422.636
6975	421.602
6976	420.565
6977	419.542
6978	418.554
6979	417.622
6980	416.772
6981	416.035
6982	415.444
6983	415.036
6984	414.848
6985	414.919
6986	415.278
6987	415.945
6988	416.919
6989	418.192
6990	419.743
6991	421.541
6992	423.545
6993	425.699
6994	427.941
6995	430.206
6996	432.428
6997	434.552
6998	436.529
6999	438.317
7000	439.883
7001	441.207
7002	442.29
7003	443.142
7004	443.776
7005	444.202
7006	444.431
7007	444.479
7008	444.369
7009	444.135
7010	443.823
7011	443.483
7012	443.163
7013	442.903
7014	442.726
7015	442.639
7016	442.642
7017	442.734
7018	442.91
7019	443.166
7020	443.5
7021	443.907
7022	444.385
7023	444.928
7024	445.525
7025	446.165
7026	446.839
7027	447.539
7028	448.262
7029	449.004
7030	449.763
7031	450.538
7032	451.335
7033	452.156
7034	452.993
7035	453.831
7036	454.642
7037	455.391
7038	456.033
7039	456.524
7040	456.828
7041	456.925
7042	456.809
7043	456.497
7044	456.011
7045	455.375
7046	454.614
7047	453.754
7048	452.822
7049	451.847
7050	450.855
7051	449.867
7052	448.897
7053	447.951
7054	447.025
7055	446.104
7056	445.158
7057	444.156
7058	443.073
7059	441.892
7060	440.597
7061	439.17
7062	437.586
7063	435.819
7064	433.856
7065	431.704
7066	429.395
7067	426.979
7068	424.503
7069	422.008
7070	419.523
7071	417.065
7072	414.642
7073	412.257
7074	409.921
7075	407.65
7076	405.467
7077	403.398
7078	401.464
7079	399.685
7080	398.066
7081	396.612
7082	395.322
7083	394.197
7084	393.238
7085	392.446
7086	391.825
7087	391.37
7088	391.068
7089	390.887
7090	390.785
7091	390.721
7092	390.653
7093	390.546
7094	390.372
7095	390.104
7096	389.72
7097	389.194
7098	388.506
7099	387.636
7100	386.574
7101	385.316
7102	383.865
7103	382.239
7104	380.472
7105	378.614
7106	376.721
7107	374.844
7108	373.023
7109	371.278
7110	369.614
7111	368.026
7112	366.513
7113	365.079
7114	363.739
7115	362.508
7116	361.398
7117	360.416
7118	359.561
7119	358.83
7120	358.215
7121	357.708
7122	357.293
7123	356.956
7124	356.686
7125	356.476
7126	356.321
7127	356.218
7128	356.161
7129	356.141
7130	356.142
7131	356.149
7132	356.157
7133	356.167
7134	356.184
7135	356.21
7136	356.241
7137	356.279
7138	356.329
7139	356.406
7140	356.525
7141	356.711
7142	356.994
7143	357.428
7144	358.091
7145	359.087
7146	360.534
7147	362.562
7148	365.312
7149	368.928
7150	373.566
7151	379.384
7152	386.532
7153	395.143
7154	405.322
7155	417.143
7156	430.643
7157	445.814
7158	462.605
7159	480.923
7160	500.638
7161	521.597
7162	543.621
7163	566.505
7164	590.023
7165	613.922
7166	637.934
7167	661.771
7168	685.129
7169	707.694
7170	729.135
7171	749.116
7172	767.298
7173	783.354
7174	796.985
7175	807.929
7176	815.978
7177	820.977
7179	821.471
7180	816.901
7181	809.15
7182	798.287
7183	784.424
7184	767.716
7185	748.359
7186	726.592
7187	702.694
7188	676.977
7189	649.778
7190	621.45
7191	592.36
7192	562.881
7193	533.39
7194	504.254
7195	475.819
7196	448.406
7197	422.3
7198	397.749
7199	374.957
7200	354.082
7201	335.234
7202	318.481
7203	303.842
7204	291.288
7205	280.76
7206	272.171
7207	265.419
7208	260.385
7209	256.936
7210	254.928
7211	254.21
7212	254.632
7213	256.048
7214	258.317
7215	261.31
7216	264.904
7217	268.986
7218	273.451
7219	278.202
7220	283.151
7221	288.224
7222	293.353
7223	298.483
7224	303.565
7225	308.557
7226	313.424
7227	318.143
7228	322.702
7229	327.104
7230	331.357
7231	335.474
7232	339.46
7233	343.316
7234	347.03
7235	350.594
7236	354.002
7237	357.252
7238	360.337
7239	363.242
7240	365.948
7241	368.44
7242	370.71
7243	372.765
7244	374.627
7245	376.325
7246	377.888
7247	379.341
7248	380.699
7249	381.974
7250	383.175
7251	384.312
7252	385.39
7253	386.417
7254	387.401
7255	388.348
7256	389.258
7257	390.123
7258	390.931
7259	391.672
7260	392.342
7261	392.941
7262	393.479
7263	393.967
7264	394.417
7265	394.842
7266	395.252
7267	395.662
7268	396.088
7269	396.544
7270	397.035
7271	397.563
7272	398.123
7273	398.702
7274	399.282
7275	399.85
7276	400.401
7277	400.939
7278	401.479
7279	402.034
7280	402.616
7281	403.237
7282	403.905
7283	404.621
7284	405.371
7285	406.133
7286	406.888
7287	407.637
7288	408.395
7289	409.179
7290	409.995
7291	410.832
7292	411.672
7293	412.495
7294	413.286
7295	414.037
7296	414.751
7297	415.439
7298	416.117
7299	416.804
7300	417.516
7301	418.264
7302	419.054
7303	419.889
7304	420.771
7305	421.699
7306	422.668
7307	423.675
7308	424.713
7309	425.782
7310	426.883
7311	428.026
7312	429.22
7313	430.476
7314	431.803
7315	433.2
7316	434.667
7317	436.202
7318	437.806
7319	439.487
7320	441.256
7321	443.118
7322	445.081
7323	447.151
7324	449.34
7325	451.664
7326	454.137
7327	456.769
7328	459.556
7329	462.487
7330	465.551
7331	468.744
7332	472.067
7333	475.518
7334	479.094
7335	482.782
7336	486.568
7337	490.427
7338	494.332
7339	498.265
7340	502.221
7341	506.2
7342	510.199
7343	514.201
7344	518.181
7345	522.115
7346	525.991
7347	529.807
7348	533.568
7349	537.279
7350	540.955
7351	544.614
7352	548.278
7353	551.969
7354	555.699
7355	559.472
7356	563.27
7357	567.07
7358	570.848
7359	574.586
7360	578.272
7361	581.9
7362	585.463
7363	588.955
7364	592.368
7365	595.697
7366	598.942
7367	602.105
7368	605.196
7369	608.228
7370	611.217
7371	614.175
7372	617.115
7373	620.037
7374	622.931
7375	625.779
7376	628.552
7377	631.226
7378	633.788
7379	636.237
7380	638.575
7381	640.806
7382	642.932
7383	644.955
7384	646.88
7385	648.712
7386	650.461
7387	652.134
7388	653.736
7389	655.272
7390	656.74
7391	658.133
7392	659.431
7393	660.601
7394	661.598
7395	662.365
7396	662.845
7397	662.984
7398	662.744
7399	662.104
7400	661.057
7401	659.607
7402	657.76
7403	655.524
7404	652.906
7405	649.91
7406	646.54
7407	642.804
7408	638.706
7409	634.248
7410	629.436
7411	624.28
7412	618.796
7413	613.01
7414	606.946
7415	600.624
7416	594.05
7417	587.226
7418	580.149
7419	572.818
7420	565.24
7421	557.429
7422	549.4
7423	541.173
7424	532.774
7425	524.233
7426	515.585
7427	506.862
7428	498.092
7429	489.304
7430	480.519
7431	471.745
7432	462.975
7433	454.201
7434	445.424
7435	436.664
7436	427.945
7437	419.293
7438	410.726
7439	402.262
7440	393.911
7441	385.683
7442	377.591
7443	369.646
7444	361.866
7445	354.26
7446	346.837
7447	339.6
7448	332.559
7449	325.73
7450	319.128
7451	312.758
7452	306.623
7453	300.72
7454	295.039
7455	289.565
7456	284.286
7457	279.2
7458	274.311
7459	269.632
7460	265.174
7461	260.952
7462	256.973
7463	253.234
7464	249.724
7465	246.425
7466	243.323
7467	240.404
7468	237.652
7469	235.053
7470	232.596
7471	230.269
7472	228.06
7473	225.944
7474	223.892
7475	221.875
7476	219.871
7477	217.86
7478	215.829
7479	213.775
7480	211.705
7481	209.635
7482	207.584
7483	205.57
7484	203.615
7485	201.734
7486	199.945
7487	198.263
7488	196.698
7489	195.253
7490	193.924
7491	192.7
7492	191.567
7493	190.514
7494	189.532
7495	188.612
7496	187.747
7497	186.933
7498	186.17
7499	185.454
7500	184.773
7501	184.106
7502	183.427
7503	182.707
7504	181.926
7505	181.073
7506	180.146
7507	179.147
7508	178.081
7509	176.957
7510	175.8
7511	174.646
7512	173.543
7513	172.535
7514	171.646
7515	170.88
7516	170.216
7517	169.627
7518	169.086
7519	168.574
7520	168.075
7521	167.577
7522	167.064
7523	166.52
7524	165.928
7525	165.274
7526	164.553
7527	163.77
7528	162.938
7529	162.068
7530	161.168
7531	160.247
7532	159.322
7533	158.412
7534	157.552
7535	156.785
7536	156.158
7537	155.703
7538	155.438
7539	155.366
7540	155.475
7541	155.738
7542	156.118
7543	156.572
7544	157.06
7545	157.546
7546	157.998
7547	158.387
7548	158.682
7549	158.859
7550	158.901
7551	158.799
7552	158.552
7553	158.164
7554	157.643
7555	156.998
7556	156.243
7557	155.394
7558	154.474
7559	153.509
7560	152.524
7561	151.54
7562	150.57
7563	149.623
7564	148.711
7565	147.854
7566	147.074
7567	146.391
7568	145.822
7569	145.382
7570	145.077
7571	144.906
7572	144.854
7573	144.893
7574	144.988
7575	145.105
7576	145.221
7577	145.319
7578	145.39
7579	145.433
7580	145.446
7581	145.426
7582	145.363
7583	145.247
7584	145.067
7585	144.809
7586	144.46
7587	144.002
7588	143.417
7589	142.687
7590	141.8
7591	140.75
7592	139.545
7593	138.201
7594	136.745
7595	135.211
7596	133.638
7597	132.066
7598	130.533
7599	129.067
7600	127.685
7601	126.397
7602	125.201
7603	124.092
7604	123.061
7605	122.107
7606	121.242
7607	120.482
7608	119.843
7609	119.332
7610	118.948
7611	118.689
7612	118.55
7613	118.522
7614	118.589
7615	118.73
7616	118.925
7617	119.152
7618	119.391
7619	119.615
7620	119.796
7621	119.904
7622	119.915
7623	119.815
7624	119.603
7625	119.285
7626	118.872
7627	118.374
7628	117.806
7629	117.179
7630	116.503
7631	115.787
7632	115.048
7633	114.308
7634	113.576
7635	112.853
7636	112.124
7637	111.368
7638	110.562
7639	109.685
7640	108.722
7641	107.666
7642	106.521
7643	105.296
7644	104.007
7645	102.661
7646	101.265
7647	99.817
7648	98.3193
7649	96.7728
7650	95.1799
7651	93.5424
7652	91.8597
7653	90.1269
7654	88.338
7655	86.4916
7656	84.5952
7657	82.6617
7658	80.7042
7659	78.734
7660	76.7616
7661	74.7964
7662	72.8423
7663	70.8966
7664	68.9536
7665	67.0092
7666	65.0639
7667	63.1239
7668	61.2008
7669	59.31
7670	57.4706
7671	55.7044
7672	54.0322
7673	52.4707
7674	51.033
7675	49.7314
7676	48.5767
7677	47.5757
7678	46.7316
7679	46.0478
7680	45.5297
7681	45.1826
7682	45.0032
7683	44.9728
7684	45.0566
7685	45.2115
7686	45.3924
7687	45.5545
7688	45.6566
7689	45.6674
7690	45.5689
7691	45.3527
7692	45.0157
7693	44.5582
7694	43.9852
7695	43.3042
7696	42.5224
7697	41.6452
7698	40.6803
7699	39.6434
7700	38.5596
7701	37.4612
7702	36.383
7703	35.3539
7704	34.39
7705	33.4944
7706	32.6631
7707	31.8893
7708	31.1654
7709	30.4822
7710	29.8282
7711	29.1869
7712	28.5387
7713	27.8651
7714	27.151
7715	26.3823
7716	25.5448
7717	24.6244
7718	23.61
7719	22.4948
7720	21.2738
7721	19.9406
7722	18.4864
7723	16.9038
7724	15.1921
7725	13.3588
7726	11.4189
7727	9.39557
7728	7.32151
7729	5.23412
7730	3.16868
7731	1.15683
7732	-0.770011
7733	-2.57805
7734	-4.23452
7735	-5.7162
7736	-7.01605
7737	-8.14213
7738	-9.10945
7739	-9.92952
7740	-10.6033
7741	-11.1218
7742	-11.4751
7743	-11.663
7744	-11.6987
7745	-11.6064
7746	-11.414
7747	-11.1458
7748	-10.8174
7749	-10.4372
7750	-10.0123
7751	-9.55507
7752	-9.08608
7753	-8.63214
7754	-8.22006
7755	-7.87102
7756	-7.59954
7757	-7.415
7758	-7.32214
7759	-7.3217
7760	-7.41198
7761	-7.58868
7762	-7.84286
7763	-8.15876
7764	-8.51368
7765	-8.88133
7766	-9.23632
7767	-9.55757
7768	-9.83119
7769	-10.0527
7770	-10.2271
7771	-10.3677
7772	-10.4915
7773	-10.6153
7774	-10.7523
7775	-10.9118
7776	-11.0991
7777	-11.3154
7778	-11.5567
7779	-11.8145
7780	-12.0766
7781	-12.3305
7782	-12.5684
7783	-12.7886
7784	-12.9919
7785	-13.1785
7786	-13.3487
7787	-13.5008
7788	-13.6263
7789	-13.7102
7790	-13.7378
7791	-13.7017
7792	-13.6063
7793	-13.4666
7794	-13.3006
7795	-13.1214
7796	-12.9342
7797	-12.7358
7798	-12.5165
7799	-12.2628
7800	-11.9619
7801	-11.6034
7802	-11.1779
7803	-10.6777
7804	-10.1038
7805	-9.47156
7806	-8.81201
7807	-8.17009
7808	-7.59859
7809	-7.15178
7810	-6.88194
7811	-6.8373
7812	-7.05759
7813	-7.56948
7814	-8.38585
7815	-9.50898
7816	-10.9348
7817	-12.657
7818	-14.6699
7819	-16.967
7820	-19.5387
7821	-22.3689
7822	-25.4345
7823	-28.7026
7824	-32.1281
7825	-35.6551
7826	-39.2246
7827	-42.7848
7828	-46.2969
7829	-49.7344
7830	-53.0801
7831	-56.3224
7832	-59.454
7833	-62.4723
7834	-65.3809
7835	-68.1869
7836	-70.8957
7837	-73.5096
7838	-76.0331
7839	-78.48
7840	-80.8744
7841	-83.2462
7842	-85.621
7843	-88.0127
7844	-90.4212
7845	-92.8371
7846	-95.2441
7847	-97.6203
7848	-99.9388
7849	-102.169
7850	-104.28
7851	-106.241
7852	-108.035
7853	-109.656
7854	-111.116
7855	-112.441
7856	-113.659
7857	-114.799
7858	-115.887
7859	-116.943
7860	-117.982
7861	-119.015
7862	-120.046
7863	-121.073
7864	-122.085
7865	-123.066
7866	-124.003
7867	-124.889
7868	-125.726
7869	-126.522
7870	-127.288
7871	-128.041
7872	-128.791
7873	-129.544
7874	-130.299
7875	-131.046
7876	-131.769
7877	-132.456
7878	-133.098
7879	-133.693
7880	-134.248
7881	-134.782
7882	-135.321
7883	-135.9
7884	-136.551
7885	-137.294
7886	-138.144
7887	-139.105
7888	-140.181
7889	-141.376
7890	-142.69
7891	-144.12
7892	-145.661
7893	-147.305
7894	-149.037
7895	-150.838
7896	-152.684
7897	-154.543
7898	-156.379
7899	-158.152
7900	-159.819
7901	-161.342
7902	-162.684
7903	-163.807
7904	-164.673
7905	-165.24
7906	-165.469
7907	-165.312
7908	-164.718
7909	-163.619
7910	-161.931
7911	-159.551
7912	-156.356
7913	-152.209
7914	-146.965
7915	-140.484
7916	-132.64
7917	-123.33
7918	-112.481
7919	-100.059
7920	-86.0667
7921	-70.5451
7922	-53.5734
7923	-35.2697
7924	-15.7864
7925	4.69967
7926	25.9943
7927	47.8858
7928	70.1427
7929	92.5134
7930	114.729
7931	136.51
7932	157.567
7933	177.605
7934	196.323
7935	213.419
7936	228.592
7937	241.569
7938	252.112
7939	260.025
7941	267.386
7942	266.651
7943	262.925
7944	256.226
7945	246.613
7946	234.179
7947	219.052
7948	201.4
7949	181.434
7950	159.41
7951	135.616
7952	110.372
7953	84.0161
7954	56.8995
7955	29.3706
7956	1.76488
7957	-25.6
7958	-52.4244
7959	-78.4262
7960	-103.343
7961	-126.937
7962	-149.003
7963	-169.375
7964	-187.922
7965	-204.554
7966	-219.225
7967	-231.931
7968	-242.708
7969	-251.621
7970	-258.753
7971	-264.202
7972	-268.086
7973	-270.537
7974	-271.709
7975	-271.756
7976	-270.83
7977	-269.065
7978	-266.587
7979	-263.511
7980	-259.947
7981	-255.993
7982	-251.728
7983	-247.217
7984	-242.508
7985	-237.644
7986	-232.663
7987	-227.602
7988	-222.5
7989	-217.395
7990	-212.327
7991	-207.333
7992	-202.454
7993	-197.729
7994	-193.196
7995	-188.878
7996	-184.787
7997	-180.919
7998	-177.264
7999	-173.816
8000	-170.575
8001	-167.553
8002	-164.77
8003	-162.244
8004	-159.988
8005	-158
8006	-156.265
8007	-154.751
8008	-153.413
8009	-152.206
8010	-151.089
8011	-150.037
8012	-149.033
8013	-148.068
8014	-147.14
8015	-146.249
8016	-145.396
8017	-144.583
8018	-143.805
8019	-143.051
8020	-142.304
8021	-141.55
8022	-140.783
8023	-140.011
8024	-139.246
8025	-138.499
8026	-137.77
8027	-137.056
8028	-136.352
8029	-135.656
8030	-134.974
8031	-134.317
8032	-133.699
8033	-133.125
8034	-132.591
8035	-132.089
8036	-131.613
8037	-131.158
8038	-130.723
8039	-130.308
8040	-129.911
8041	-129.539
8042	-129.194
8043	-128.872
8044	-128.557
8045	-128.226
8046	-127.852
8047	-127.415
8048	-126.909
8049	-126.344
8050	-125.745
8051	-125.136
8052	-124.543
8053	-123.986
8054	-123.487
8055	-123.06
8056	-122.717
8057	-122.456
8058	-122.256
8059	-122.081
8060	-121.883
8061	-121.618
8062	-121.249
8063	-120.753
8064	-120.122
8065	-119.364
8066	-118.504
8067	-117.575
8068	-116.605
8069	-115.612
8070	-114.602
8071	-113.578
8072	-112.542
8073	-111.5
8074	-110.453
8075	-109.393
8076	-108.307
8077	-107.175
8078	-105.978
8079	-104.693
8080	-103.304
8081	-101.79
8082	-100.138
8083	-98.3358
8084	-96.3748
8085	-94.2496
8086	-91.9624
8087	-89.5237
8088	-86.9493
8089	-84.2554
8090	-81.4513
8091	-78.5374
8092	-75.5098
8093	-72.3686
8094	-69.1243
8095	-65.7986
8096	-62.4212
8097	-59.025
8098	-55.6457
8099	-52.319
8100	-49.0743
8101	-45.9284
8102	-42.8859
8103	-39.9408
8104	-37.0767
8105	-34.2675
8106	-31.4825
8107	-28.6903
8108	-25.8613
8109	-22.9701
8110	-19.9941
8111	-16.9133
8112	-13.7111
8113	-10.3781
8114	-6.91226
8115	-3.315
8116	0.412195
8117	4.26703
8118	8.24077
8119	12.3119
8120	16.4451
8121	20.5981
8122	24.7309
8123	28.8119
8124	32.819
8125	36.7364
8126	40.5512
8127	44.2541
8128	47.8434
8129	51.3317
8130	54.7447
8131	58.1139
8132	61.4692
8133	64.8375
8134	68.2432
8135	71.7073
8136	75.2456
8137	78.8668
8138	82.5716
8139	86.3485
8140	90.1731
8141	94.012
8142	97.8298
8143	101.592
8144	105.262
8145	108.802
8146	112.169
8147	115.319
8148	118.203
8149	120.779
8150	123.005
8151	124.853
8152	126.302
8153	127.35
8154	128.011
8155	128.304
8156	128.251
8157	127.871
8158	127.177
8159	126.171
8160	124.85
8161	123.216
8162	121.28
8163	119.054
8164	116.546
8165	113.755
8166	110.673
8167	107.292
8168	103.6
8169	99.5861
8170	95.245
8171	90.5771
8172	85.5866
8173	80.2786
8174	74.6602
8175	68.7432
8176	62.5473
8177	56.1016
8178	49.4389
8179	42.5863
8180	35.5598
8181	28.3689
8182	21.0232
8183	13.5394
8184	5.94244
8185	-1.73812
8186	-9.47505
8187	-17.2473
8188	-25.0403
8189	-32.845
8190	-40.6589
8191	-48.4847
8192	-56.327
8193	-64.1903
8194	-72.0846
8195	-80.0267
8196	-88.0355
8197	-96.1208
8198	-104.275
8199	-112.474
8200	-120.688
8201	-128.892
8202	-137.068
8203	-145.206
8204	-153.297
8205	-161.327
8206	-169.272
8207	-177.098
8208	-184.771
8209	-192.254
8210	-199.515
8211	-206.521
8212	-213.244
8213	-219.664
8214	-225.768
8215	-231.555
8216	-237.028
8217	-242.195
8218	-247.063
8219	-251.638
8220	-255.931
8221	-259.958
8222	-263.74
8223	-267.306
8224	-270.689
8225	-273.924
8226	-277.037
8227	-280.045
8228	-282.95
8229	-285.738
8230	-288.386
8231	-290.867
8232	-293.162
8233	-295.266
8234	-297.185
8235	-298.943
8236	-300.573
8237	-302.116
8238	-303.618
8239	-305.119
8240	-306.646
8241	-308.208
8242	-309.795
8243	-311.386
8244	-312.953
8245	-314.461
8246	-315.874
8247	-317.168
8248	-318.333
8249	-319.382
8250	-320.335
8251	-321.219
8252	-322.058
8253	-322.869
8254	-323.666
8255	-324.461
8256	-325.266
8257	-326.091
8258	-326.946
8259	-327.835
8260	-328.758
8261	-329.71
8262	-330.678
8263	-331.648
8264	-332.618
8265	-333.601
8266	-334.614
8267	-335.678
8268	-336.811
8269	-338.015
8270	-339.286
8271	-340.61
8272	-341.963
8273	-343.317
8274	-344.638
8275	-345.894
8276	-347.062
8277	-348.122
8278	-349.061
8279	-349.866
8280	-350.528
8281	-351.049
8282	-351.443
8283	-351.74
8284	-351.969
8285	-352.157
8286	-352.332
8287	-352.515
8288	-352.724
8289	-352.965
8290	-353.238
8291	-353.535
8292	-353.847
8293	-354.167
8294	-354.496
8295	-354.839
8296	-355.192
8297	-355.545
8298	-355.873
8299	-356.143
8300	-356.322
8301	-356.382
8302	-356.306
8303	-356.1
8304	-355.781
8305	-355.373
8306	-354.897
8307	-354.366
8308	-353.786
8309	-353.161
8310	-352.494
8311	-351.793
8312	-351.073
8313	-350.351
8314	-349.639
8315	-348.946
8316	-348.284
8317	-347.669
8318	-347.112
8319	-346.615
8320	-346.168
8321	-345.753
8322	-345.354
8323	-344.964
8324	-344.593
8325	-344.262
8326	-343.99
8327	-343.785
8328	-343.639
8329	-343.533
8330	-343.449
8331	-343.386
8332	-343.351
8333	-343.356
8334	-343.415
8335	-343.538
8336	-343.73
8337	-343.983
8338	-344.277
8339	-344.588
8340	-344.891
8341	-345.169
8342	-345.423
8343	-345.668
8344	-345.929
8345	-346.236
8346	-346.612
8347	-347.07
8348	-347.606
8349	-348.199
8350	-348.818
8351	-349.428
8352	-349.995
8353	-350.482
8354	-350.856
8355	-351.095
8356	-351.188
8357	-351.139
8358	-350.963
8359	-350.676
8360	-350.299
8361	-349.851
8362	-349.352
8363	-348.81
8364	-348.227
8365	-347.602
8366	-346.939
8367	-346.238
8368	-345.497
8369	-344.714
8370	-343.887
8371	-343.006
8372	-342.064
8373	-341.056
8374	-339.987
8375	-338.863
8376	-337.699
8377	-336.514
8378	-335.329
8379	-334.163
8380	-333.021
8381	-331.903
8382	-330.81
8383	-329.745
8384	-328.715
8385	-327.73
8386	-326.801
8387	-325.942
8388	-325.17
8389	-324.503
8390	-323.962
8391	-323.564
8392	-323.325
8393	-323.254
8394	-323.355
8395	-323.625
8396	-324.057
8397	-324.638
8398	-325.346
8399	-326.157
8400	-327.041
8401	-327.963
8402	-328.888
8403	-329.782
8404	-330.616
8405	-331.369
8406	-332.025
8407	-332.569
8408	-332.987
8409	-333.272
8410	-333.423
8411	-333.453
8412	-333.377
8413	-333.213
8414	-332.978
8415	-332.688
8416	-332.36
8417	-332.018
8418	-331.683
8419	-331.372
8420	-331.09
8421	-330.827
8422	-330.565
8423	-330.288
8424	-329.994
8425	-329.691
8426	-329.39
8427	-329.102
8428	-328.839
8429	-328.609
8430	-328.415
8431	-328.259
8432	-328.143
8433	-328.073
8434	-328.061
8435	-328.124
8436	-328.287
8437	-328.575
8438	-329.007
8439	-329.586
8440	-330.296
8441	-331.105
8442	-331.979
8443	-332.888
8444	-333.807
8445	-334.714
8446	-335.577
8447	-336.361
8448	-337.023
8449	-337.528
8450	-337.853
8451	-337.993
8452	-337.961
8453	-337.786
8454	-337.507
8455	-337.166
8456	-336.809
8457	-336.474
8458	-336.192
8459	-335.986
8460	-335.873
8461	-335.852
8462	-335.908
8463	-336.01
8464	-336.122
8465	-336.217
8466	-336.279
8467	-336.297
8468	-336.269
8469	-336.197
8470	-336.091
8471	-335.956
8472	-335.797
8473	-335.612
8474	-335.402
8475	-335.167
8476	-334.904
8477	-334.609
8478	-334.278
8479	-333.917
8480	-333.53
8481	-333.12
8482	-332.685
8483	-332.226
8484	-331.747
8485	-331.259
8486	-330.772
8487	-330.3
8488	-329.856
8489	-329.456
8490	-329.112
8491	-328.834
8492	-328.629
8493	-328.502
8494	-328.452
8495	-328.476
8496	-328.562
8497	-328.696
8498	-328.866
8499	-329.065
8500	-329.287
8501	-329.518
8502	-329.75
8503	-329.974
8504	-330.186
8505	-330.373
8506	-330.52
8507	-330.614
8508	-330.653
8509	-330.645
8510	-330.609
8511	-330.566
8512	-330.543
8513	-330.556
8514	-330.616
8515	-330.721
8516	-330.856
8517	-331.003
8518	-331.134
8519	-331.219
8520	-331.228
8521	-331.141
8522	-330.95
8523	-330.666
8524	-330.298
8525	-329.843
8526	-329.285
8527	-328.601
8528	-327.783
8529	-326.834
8530	-325.768
8531	-324.605
8532	-323.366
8533	-322.073
8534	-320.746
8535	-319.407
8536	-318.081
8537	-316.796
8538	-315.58
8539	-314.46
8540	-313.463
8541	-312.606
8542	-311.899
8543	-311.343
8544	-310.925
8545	-310.624
8546	-310.416
8547	-310.281
8548	-310.208
8549	-310.189
8550	-310.209
8551	-310.242
8552	-310.256
8553	-310.217
8554	-310.091
8555	-309.854
8556	-309.486
8557	-308.966
8558	-308.272
8559	-307.385
8560	-306.301
8561	-305.028
8562	-303.585
8563	-302
8564	-300.317
8565	-298.588
8566	-296.868
8567	-295.196
8568	-293.596
8569	-292.076
8570	-290.64
8571	-289.291
8572	-288.039
8573	-286.894
8574	-285.871
8575	-284.978
8576	-284.21
8577	-283.543
8578	-282.942
8579	-282.377
8580	-281.826
8581	-281.277
8582	-280.724
8583	-280.157
8584	-279.564
8585	-278.94
8586	-278.283
8587	-277.597
8588	-276.878
8589	-276.123
8590	-275.322
8591	-274.469
8592	-273.562
8593	-272.604
8594	-271.598
8595	-270.547
8596	-269.444
8597	-268.279
8598	-267.04
8599	-265.718
8600	-264.31
8601	-262.819
8602	-261.257
8603	-259.641
8604	-257.997
8605	-256.358
8606	-254.752
8607	-253.204
8608	-251.732
8609	-250.347
8610	-249.05
8611	-247.832
8612	-246.678
8613	-245.569
8614	-244.489
8615	-243.42
8616	-242.351
8617	-241.276
8618	-240.197
8619	-239.126
8620	-238.078
8621	-237.068
8622	-236.111
8623	-235.222
8624	-234.411
8625	-233.687
8626	-233.055
8627	-232.523
8628	-232.102
8629	-231.807
8630	-231.661
8631	-231.683
8632	-231.89
8633	-232.294
8634	-232.905
8635	-233.73
8636	-234.768
8637	-236.009
8638	-237.433
8639	-239.017
8640	-240.737
8641	-242.581
8642	-244.541
8643	-246.608
8644	-248.768
8645	-250.995
8646	-253.257
8647	-255.524
8648	-257.766
8649	-259.959
8650	-262.079
8651	-264.108
8652	-266.038
8653	-267.863
8654	-269.578
8655	-271.177
8656	-272.651
8657	-274.001
8658	-275.229
8659	-276.343
8660	-277.347
8661	-278.245
8662	-279.033
8663	-279.709
8664	-280.276
8665	-280.734
8666	-281.086
8667	-281.329
8668	-281.462
8669	-281.489
8670	-281.422
8671	-281.282
8672	-281.093
8673	-280.878
8674	-280.663
8675	-280.473
8676	-280.336
8677	-280.279
8678	-280.326
8679	-280.498
8680	-280.807
8681	-281.258
8682	-281.852
8683	-282.583
8684	-283.444
8685	-284.431
8686	-285.535
8687	-286.744
8688	-288.04
8689	-289.394
8690	-290.768
8691	-292.116
8692	-293.389
8693	-294.538
8694	-295.518
8695	-296.293
8696	-296.832
8697	-297.119
8698	-297.151
8699	-296.942
8700	-296.516
8701	-295.905
8702	-295.144
8703	-294.265
8704	-293.301
8705	-292.283
8706	-291.244
8707	-290.22
8708	-289.245
8709	-288.355
8710	-287.58
8711	-286.946
8712	-286.462
8713	-286.127
8714	-285.925
8715	-285.824
8716	-285.775
8717	-285.715
8718	-285.567
8719	-285.239
8720	-284.623
8721	-283.6
8722	-282.033
8723	-279.769
8724	-276.638
8725	-272.462
8726	-267.062
8727	-260.28
8728	-251.988
8729	-242.094
8730	-230.539
8731	-217.305
8732	-202.422
8733	-185.965
8734	-168.054
8735	-148.836
8736	-128.481
8737	-107.184
8738	-85.1593
8739	-62.6476
8740	-39.9073
8741	-17.2094
8742	5.16756
8743	26.94
8744	47.822
8745	67.5325
8746	85.8016
8747	102.374
8748	117.01
8749	129.498
8750	139.648
8751	147.299
8752	152.317
8753	154.605
8755	150.844
8756	144.845
8757	136.194
8758	124.996
8759	111.377
8760	95.4913
8761	77.5249
8762	57.6991
8763	36.2647
8764	13.4973
8765	-10.3066
8766	-34.8343
8767	-59.7634
8768	-84.7706
8769	-109.542
8770	-133.781
8771	-157.217
8772	-179.607
8773	-200.743
8774	-220.459
8775	-238.63
8776	-255.169
8777	-270.015
8778	-283.135
8779	-294.523
8780	-304.202
8781	-312.217
8782	-318.631
8783	-323.514
8784	-326.952
8785	-329.037
8786	-329.879
8787	-329.596
8788	-328.322
8789	-326.199
8790	-323.371
8791	-319.976
8792	-316.145
8793	-311.989
8794	-307.604
8795	-303.069
8796	-298.448
8797	-293.791
8798	-289.134
8799	-284.501
8800	-279.911
8801	-275.379
8802	-270.927
8803	-266.577
8804	-262.355
8805	-258.291
8806	-254.417
8807	-250.767
8808	-247.375
8809	-244.268
8810	-241.46
8811	-238.951
8812	-236.729
8813	-234.777
8814	-233.073
8815	-231.6
8816	-230.334
8817	-229.252
8818	-228.327
8819	-227.531
8820	-226.831
8821	-226.193
8822	-225.59
8823	-225.002
8824	-224.419
8825	-223.84
8826	-223.261
8827	-222.676
8828	-222.085
8829	-221.49
8830	-220.898
8831	-220.314
8832	-219.736
8833	-219.145
8834	-218.518
8835	-217.826
8836	-217.046
8837	-216.16
8838	-215.155
8839	-214.025
8840	-212.767
8841	-211.387
8842	-209.889
8843	-208.276
8844	-206.546
8845	-204.691
8846	-202.703
8847	-200.575
8848	-198.308
8849	-195.905
8850	-193.378
8851	-190.748
8852	-188.049
8853	-185.323
8854	-182.613
8855	-179.969
8856	-177.437
8857	-175.059
8858	-172.867
8859	-170.875
8860	-169.088
8861	-167.496
8862	-166.078
8863	-164.805
8864	-163.643
8865	-162.558
8866	-161.522
8867	-160.51
8868	-159.504
8869	-158.493
8870	-157.474
8871	-156.445
8872	-155.407
8873	-154.358
8874	-153.297
8875	-152.22
8876	-151.121
8877	-149.987
8878	-148.805
8879	-147.56
8880	-146.239
8881	-144.829
8882	-143.322
8883	-141.715
8884	-140.011
8885	-138.223
8886	-136.369
8887	-134.476
8888	-132.569
8889	-130.667
8890	-128.784
8891	-126.932
8892	-125.125
8893	-123.374
8894	-121.684
8895	-120.054
8896	-118.479
8897	-116.956
8898	-115.484
8899	-114.058
8900	-112.669
8901	-111.302
8902	-109.945
8903	-108.577
8904	-107.179
8905	-105.725
8906	-104.184
8907	-102.523
