TimeOfDay	Time	Sig
13:33:51.188	0	-3898.3
13:33:51.189	0.001	-3886.09
13:33:51.190	0.002	-3858.63
13:33:51.191	0.003	-3826.58
13:33:51.192	0.004	-3808.27
13:33:51.193	0.005	-3811.32
13:33:51.194	0.006	-3813.61
13:33:51.195	0.007	-3791.48
13:33:51.196	0.008	-3795.3
13:33:51.197	0.009	-3810.56
13:33:51.198	0.01	-3796.06
13:33:51.199	0.011	-3767.07
13:33:51.200	0.012	-3773.17
13:33:51.201	0.013	-3777.75
13:33:51.202	0.014	-3773.17
13:33:51.203	0.015	-3769.36
13:33:51.204	0.016	-3767.83
13:33:51.205	0.017	-3758.68
13:33:51.206	0.018	-3737.32
13:33:51.207	0.019	-3734.26
13:33:51.208	0.02	-3744.18
13:33:51.209	0.021	-3748.76
13:33:51.210	0.022	-3752.57
13:33:51.211	0.023	-3754.86
13:33:51.212	0.024	-3753.34
13:33:51.213	0.025	-3726.64
13:33:51.214	0.026	-3720.53
13:33:51.215	0.027	-3728.16
13:33:51.216	0.028	-3715.95
13:33:51.217	0.029	-3707.56
13:33:51.218	0.03	-3731.98
13:33:51.219	0.031	-3761.73
13:33:51.220	0.032	-3753.34
13:33:51.221	0.033	-3734.26
13:33:51.222	0.034	-3677.8
13:33:51.223	0.035	-3636.61
13:33:51.224	0.036	-3642.71
13:33:51.225	0.037	-3666.36
13:33:51.226	0.038	-3677.04
13:33:51.227	0.039	-3687.73
13:33:51.228	0.04	-3684.67
13:33:51.229	0.041	-3690.78
13:33:51.230	0.042	-3693.83
13:33:51.231	0.043	-3681.62
13:33:51.232	0.044	-3668.65
13:33:51.233	0.045	-3671.7
13:33:51.234	0.046	-3674.75
13:33:51.235	0.047	-3663.31
13:33:51.236	0.048	-3669.41
13:33:51.237	0.049	-3683.91
13:33:51.238	0.05	-3683.91
13:33:51.239	0.051	-3678.57
13:33:51.240	0.052	-3686.96
13:33:51.241	0.053	-3694.59
13:33:51.242	0.054	-3693.83
13:33:51.243	0.055	-3690.01
13:33:51.244	0.056	-3693.07
13:33:51.245	0.057	-3697.64
13:33:51.246	0.058	-3699.17
13:33:51.247	0.059	-3703.75
13:33:51.248	0.06	-3717.48
13:33:51.249	0.061	-3731.98
13:33:51.250	0.062	-3727.4
13:33:51.251	0.063	-3731.98
13:33:51.252	0.064	-3757.92
13:33:51.253	0.065	-3767.83
13:33:51.254	0.066	-3759.44
13:33:51.255	0.067	-3770.89
13:33:51.256	0.068	-3756.39
13:33:51.257	0.069	-3730.45
13:33:51.258	0.07	-3736.55
13:33:51.259	0.071	-3767.83
13:33:51.260	0.072	-3781.57
13:33:51.261	0.073	-3773.17
13:33:51.262	0.074	-3784.62
13:33:51.263	0.075	-3803.69
13:33:51.264	0.076	-3819.72
13:33:51.265	0.077	-3832.69
13:33:51.266	0.078	-3847.94
13:33:51.267	0.079	-3850.23
13:33:51.268	0.08	-3857.1
13:33:51.269	0.081	-3852.52
13:33:51.270	0.082	-3842.6
13:33:51.271	0.083	-3867.02
13:33:51.272	0.084	-3870.07
13:33:51.273	0.085	-3846.42
13:33:51.274	0.086	-3852.52
13:33:51.275	0.087	-3876.17
13:33:51.276	0.088	-3886.85
13:33:51.277	0.089	-3899.06
13:33:51.278	0.09	-3925
13:33:51.279	0.091	-3931.1
13:33:51.280	0.092	-3930.34
13:33:51.281	0.093	-3921.19
13:33:51.282	0.094	-3908.98
13:33:51.283	0.095	-3914.32
13:33:51.284	0.096	-3925
13:33:51.285	0.097	-3944.84
13:33:51.286	0.098	-3947.89
13:33:51.287	0.099	-3944.84
13:33:51.288	0.1	-3954.76
13:33:51.289	0.101	-3958.57
13:33:51.290	0.102	-3969.25
13:33:51.291	0.103	-3984.51
13:33:51.292	0.104	-3999.01
13:33:51.293	0.105	-3996.72
13:33:51.294	0.106	-3989.09
13:33:51.295	0.107	-3988.33
13:33:51.296	0.108	-3992.14
13:33:51.297	0.109	-4016.56
13:33:51.298	0.11	-4018.84
13:33:51.299	0.111	-4000.53
13:33:51.300	0.112	-3989.85
13:33:51.301	0.113	-4003.59
13:33:51.302	0.114	-3996.72
13:33:51.303	0.115	-3988.33
13:33:51.304	0.116	-3992.9
13:33:51.305	0.117	-4010.45
13:33:51.306	0.118	-4024.95
13:33:51.307	0.119	-4016.56
13:33:51.308	0.12	-4021.13
13:33:51.309	0.121	-4033.34
13:33:51.310	0.122	-4037.16
13:33:51.311	0.123	-4036.39
13:33:51.312	0.124	-4034.1
13:33:51.313	0.125	-4040.97
13:33:51.314	0.126	-4047.84
13:33:51.315	0.127	-4036.39
13:33:51.316	0.128	-4029.53
13:33:51.317	0.129	-4034.1
13:33:51.318	0.13	-4066.91
13:33:51.319	0.131	-4082.93
13:33:51.320	0.132	-4069.96
13:33:51.321	0.133	-4061.57
13:33:51.322	0.134	-4063.86
13:33:51.323	0.135	-4065.39
13:33:51.324	0.136	-4055.47
13:33:51.325	0.137	-4029.53
13:33:51.326	0.138	-4009.69
13:33:51.327	0.139	-4027.24
13:33:51.328	0.14	-4040.21
13:33:51.329	0.141	-4033.34
13:33:51.330	0.142	-4040.21
13:33:51.331	0.143	-4056.23
13:33:51.332	0.144	-4047.84
13:33:51.333	0.145	-4045.55
13:33:51.334	0.146	-4046.31
13:33:51.335	0.147	-4035.63
13:33:51.336	0.148	-4036.39
13:33:51.337	0.149	-4058.52
13:33:51.338	0.15	-4060.04
13:33:51.339	0.151	-4052.41
13:33:51.340	0.152	-4037.16
13:33:51.341	0.153	-4036.39
13:33:51.342	0.154	-4060.04
13:33:51.343	0.155	-4058.52
13:33:51.344	0.156	-4052.41
13:33:51.345	0.157	-4056.23
13:33:51.346	0.158	-4044.78
13:33:51.347	0.159	-4042.5
13:33:51.348	0.16	-4060.04
13:33:51.349	0.161	-4073.02
13:33:51.350	0.162	-4071.49
13:33:51.351	0.163	-4049.36
13:33:51.352	0.164	-4043.26
13:33:51.353	0.165	-4045.55
13:33:51.354	0.166	-4033.34
13:33:51.355	0.167	-4034.1
13:33:51.356	0.168	-4063.86
13:33:51.357	0.169	-4071.49
13:33:51.358	0.17	-4050.89
13:33:51.359	0.171	-4047.84
13:33:51.360	0.172	-4061.57
13:33:51.361	0.173	-4063.1
13:33:51.362	0.174	-4061.57
13:33:51.363	0.175	-4059.28
13:33:51.364	0.176	-4057.75
13:33:51.365	0.177	-4052.41
13:33:51.366	0.178	-4053.18
13:33:51.367	0.179	-4052.41
13:33:51.368	0.18	-4076.83
13:33:51.369	0.181	-4069.96
13:33:51.370	0.182	-4041.73
13:33:51.371	0.183	-4034.1
13:33:51.372	0.184	-4036.39
13:33:51.373	0.185	-4033.34
13:33:51.374	0.186	-4031.81
13:33:51.375	0.187	-4022.66
13:33:51.376	0.188	-4015.79
13:33:51.377	0.189	-4024.19
13:33:51.378	0.19	-4024.95
13:33:51.379	0.191	-4049.36
13:33:51.380	0.192	-4054.7
13:33:51.381	0.193	-4045.55
13:33:51.382	0.194	-4062.33
13:33:51.383	0.195	-4056.99
13:33:51.384	0.196	-4058.52
13:33:51.385	0.197	-4046.31
13:33:51.386	0.198	-4034.1
13:33:51.387	0.199	-4031.81
13:33:51.388	0.2	-4034.1
13:33:51.389	0.201	-4037.16
13:33:51.390	0.202	-4050.12
13:33:51.391	0.203	-4052.41
13:33:51.392	0.204	-4048.6
13:33:51.393	0.205	-4067.67
13:33:51.394	0.206	-4090.56
13:33:51.395	0.207	-4098.96
13:33:51.396	0.208	-4085.99
13:33:51.397	0.209	-4058.52
13:33:51.398	0.21	-4031.05
13:33:51.399	0.211	-4010.45
13:33:51.400	0.212	-4012.74
13:33:51.401	0.213	-4025.71
13:33:51.402	0.214	-4032.58
13:33:51.403	0.215	-4033.34
13:33:51.404	0.216	-4011.22
13:33:51.405	0.217	-4011.22
13:33:51.406	0.218	-4036.39
13:33:51.407	0.219	-4030.29
13:33:51.408	0.22	-4024.19
13:33:51.409	0.221	-4037.16
13:33:51.410	0.222	-4033.34
13:33:51.411	0.223	-4032.58
13:33:51.412	0.224	-4033.34
13:33:51.413	0.225	-4034.87
13:33:51.414	0.226	-4040.21
13:33:51.415	0.227	-4036.39
13:33:51.416	0.228	-4029.53
13:33:51.417	0.229	-4019.61
13:33:51.418	0.23	-4010.45
13:33:51.419	0.231	-4019.61
13:33:51.420	0.232	-4044.78
13:33:51.421	0.233	-4052.41
13:33:51.422	0.234	-4046.31
13:33:51.423	0.235	-4027.24
13:33:51.424	0.236	-4019.61
13:33:51.425	0.237	-4025.71
13:33:51.426	0.238	-4027.24
13:33:51.427	0.239	-4021.13
13:33:51.428	0.24	-4020.37
13:33:51.429	0.241	-4041.73
13:33:51.430	0.242	-4044.78
13:33:51.431	0.243	-4044.78
13:33:51.432	0.244	-4024.19
13:33:51.433	0.245	-4005.87
13:33:51.434	0.246	-4039.44
13:33:51.435	0.247	-4047.84
13:33:51.436	0.248	-4044.02
13:33:51.437	0.249	-4047.07
13:33:51.438	0.25	-4040.97
13:33:51.439	0.251	-4023.42
13:33:51.440	0.252	-4005.11
13:33:51.441	0.253	-4018.08
13:33:51.442	0.254	-4053.94
13:33:51.443	0.255	-4047.84
13:33:51.444	0.256	-4030.29
13:33:51.445	0.257	-4028.76
13:33:51.446	0.258	-4027.24
13:33:51.447	0.259	-4015.03
13:33:51.448	0.26	-4018.84
13:33:51.449	0.261	-4018.84
13:33:51.450	0.262	-4014.27
13:33:51.451	0.263	-4024.19
13:33:51.452	0.264	-4037.92
13:33:51.453	0.265	-4053.18
13:33:51.454	0.266	-4032.58
13:33:51.455	0.267	-4023.42
13:33:51.456	0.268	-4017.32
13:33:51.457	0.269	-4008.16
13:33:51.458	0.27	-4011.22
13:33:51.459	0.271	-4037.16
13:33:51.460	0.272	-4068.44
13:33:51.461	0.273	-4079.88
13:33:51.462	0.274	-4064.62
13:33:51.463	0.275	-4037.92
13:33:51.464	0.276	-4026.47
13:33:51.465	0.277	-4025.71
13:33:51.466	0.278	-4017.32
13:33:51.467	0.279	-4023.42
13:33:51.468	0.28	-4025.71
13:33:51.469	0.281	-4015.79
13:33:51.470	0.282	-3999.01
13:33:51.471	0.283	-4007.4
13:33:51.472	0.284	-4031.05
13:33:51.473	0.285	-4043.26
13:33:51.474	0.286	-4045.55
13:33:51.475	0.287	-4053.18
13:33:51.476	0.288	-4062.33
13:33:51.477	0.289	-4062.33
13:33:51.478	0.29	-4061.57
13:33:51.479	0.291	-4035.63
13:33:51.480	0.292	-4010.45
13:33:51.481	0.293	-3999.77
13:33:51.482	0.294	-4002.06
13:33:51.483	0.295	-4015.79
13:33:51.484	0.296	-4025.71
13:33:51.485	0.297	-4042.5
13:33:51.486	0.298	-4041.73
13:33:51.487	0.299	-4028.76
13:33:51.488	0.3	-4020.37
13:33:51.489	0.301	-4026.47
13:33:51.490	0.302	-4031.81
13:33:51.491	0.303	-4029.53
13:33:51.492	0.304	-4050.12
13:33:51.493	0.305	-4056.99
13:33:51.494	0.306	-4061.57
13:33:51.495	0.307	-4066.91
13:33:51.496	0.308	-4037.92
13:33:51.497	0.309	-4023.42
13:33:51.498	0.31	-4044.02
13:33:51.499	0.311	-4069.2
13:33:51.500	0.312	-4060.81
13:33:51.501	0.313	-4016.56
13:33:51.502	0.314	-3999.77
13:33:51.503	0.315	-4011.22
13:33:51.504	0.316	-4037.92
13:33:51.505	0.317	-4059.28
13:33:51.506	0.318	-4053.94
13:33:51.507	0.319	-4053.94
13:33:51.508	0.32	-4051.65
13:33:51.509	0.321	-4046.31
13:33:51.510	0.322	-4044.78
13:33:51.511	0.323	-4063.86
13:33:51.512	0.324	-4053.18
13:33:51.513	0.325	-4021.9
13:33:51.514	0.326	-4002.82
13:33:51.515	0.327	-4007.4
13:33:51.516	0.328	-4016.56
13:33:51.517	0.329	-4015.03
13:33:51.518	0.33	-4009.69
13:33:51.519	0.331	-4008.93
13:33:51.520	0.332	-4017.32
13:33:51.521	0.333	-4015.03
13:33:51.522	0.334	-4017.32
13:33:51.523	0.335	-4018.84
13:33:51.524	0.336	-4018.08
13:33:51.525	0.337	-4019.61
13:33:51.526	0.338	-4018.84
13:33:51.527	0.339	-4031.81
13:33:51.528	0.34	-4031.05
13:33:51.529	0.341	-4026.47
13:33:51.530	0.342	-4021.9
13:33:51.531	0.343	-4036.39
13:33:51.532	0.344	-4043.26
13:33:51.533	0.345	-4033.34
13:33:51.534	0.346	-4020.37
13:33:51.535	0.347	-4013.5
13:33:51.536	0.348	-4013.5
13:33:51.537	0.349	-4023.42
13:33:51.538	0.35	-4047.07
13:33:51.539	0.351	-4044.02
13:33:51.540	0.352	-4032.58
13:33:51.541	0.353	-4041.73
13:33:51.542	0.354	-4034.87
13:33:51.543	0.355	-4029.53
13:33:51.544	0.356	-4039.44
13:33:51.545	0.357	-4053.18
13:33:51.546	0.358	-4073.78
13:33:51.547	0.359	-4066.15
13:33:51.548	0.36	-4034.87
13:33:51.549	0.361	-4002.06
13:33:51.550	0.362	-4020.37
13:33:51.551	0.363	-4063.1
13:33:51.552	0.364	-4070.73
13:33:51.553	0.365	-4052.41
13:33:51.554	0.366	-4031.05
13:33:51.555	0.367	-4023.42
13:33:51.556	0.368	-4045.55
13:33:51.557	0.369	-4073.02
13:33:51.558	0.37	-4069.2
13:33:51.559	0.371	-4058.52
13:33:51.560	0.372	-4053.18
13:33:51.561	0.373	-4056.23
13:33:51.562	0.374	-4056.23
13:33:51.563	0.375	-4045.55
13:33:51.564	0.376	-4049.36
13:33:51.565	0.377	-4039.44
13:33:51.566	0.378	-4040.21
13:33:51.567	0.379	-4080.64
13:33:51.568	0.38	-4079.12
13:33:51.569	0.381	-4058.52
13:33:51.570	0.382	-4050.12
13:33:51.571	0.383	-4046.31
13:33:51.572	0.384	-4025.71
13:33:51.573	0.385	-4010.45
13:33:51.574	0.386	-4035.63
13:33:51.575	0.387	-4058.52
13:33:51.576	0.388	-4063.1
13:33:51.577	0.389	-4060.81
13:33:51.578	0.39	-4053.18
13:33:51.579	0.391	-4023.42
13:33:51.580	0.392	-4008.93
13:33:51.581	0.393	-4021.13
13:33:51.582	0.394	-4047.84
13:33:51.583	0.395	-4054.7
13:33:51.584	0.396	-4037.16
13:33:51.585	0.397	-4027.24
13:33:51.586	0.398	-4034.1
13:33:51.587	0.399	-4029.53
13:33:51.588	0.4	-4010.45
13:33:51.589	0.401	-4018.08
13:33:51.590	0.402	-4034.1
13:33:51.591	0.403	-4050.89
13:33:51.592	0.404	-4046.31
13:33:51.593	0.405	-4018.84
13:33:51.594	0.406	-4011.98
13:33:51.595	0.407	-4028
13:33:51.596	0.408	-4043.26
13:33:51.597	0.409	-4031.05
13:33:51.598	0.41	-4021.9
13:33:51.599	0.411	-4023.42
13:33:51.600	0.412	-4023.42
13:33:51.601	0.413	-4024.19
13:33:51.602	0.414	-4023.42
13:33:51.603	0.415	-4015.79
13:33:51.604	0.416	-4011.22
13:33:51.605	0.417	-4022.66
13:33:51.606	0.418	-4040.21
13:33:51.607	0.419	-4053.18
13:33:51.608	0.42	-4055.47
13:33:51.609	0.421	-4056.23
13:33:51.610	0.422	-4031.81
13:33:51.611	0.423	-4007.4
13:33:51.612	0.424	-3988.33
13:33:51.613	0.425	-3982.99
13:33:51.614	0.426	-4002.06
13:33:51.615	0.427	-4023.42
13:33:51.616	0.428	-4023.42
13:33:51.617	0.429	-4021.13
13:33:51.618	0.43	-4026.47
13:33:51.619	0.431	-4026.47
13:33:51.620	0.432	-4014.27
13:33:51.621	0.433	-4011.22
13:33:51.622	0.434	-4018.84
13:33:51.623	0.435	-4035.63
13:33:51.624	0.436	-4063.86
13:33:51.625	0.437	-4072.25
13:33:51.626	0.438	-4076.83
13:33:51.627	0.439	-4056.99
13:33:51.628	0.44	-4018.84
13:33:51.629	0.441	-3996.72
13:33:51.630	0.442	-4001.3
13:33:51.631	0.443	-4021.9
13:33:51.632	0.444	-4022.66
13:33:51.633	0.445	-4012.74
13:33:51.634	0.446	-4025.71
13:33:51.635	0.447	-4035.63
13:33:51.636	0.448	-4030.29
13:33:51.637	0.449	-4027.24
13:33:51.638	0.45	-4032.58
13:33:51.639	0.451	-4033.34
13:33:51.640	0.452	-4033.34
13:33:51.641	0.453	-4031.81
13:33:51.642	0.454	-4021.9
13:33:51.643	0.455	-4017.32
13:33:51.644	0.456	-4021.9
13:33:51.645	0.457	-4020.37
13:33:51.646	0.458	-4021.13
13:33:51.647	0.459	-4026.47
13:33:51.648	0.46	-4032.58
13:33:51.649	0.461	-4040.97
13:33:51.650	0.462	-4050.89
13:33:51.651	0.463	-4044.02
13:33:51.652	0.464	-4021.13
13:33:51.653	0.465	-3994.43
13:33:51.654	0.466	-3955.52
13:33:51.655	0.467	-3934.92
13:33:51.656	0.468	-3962.39
13:33:51.657	0.469	-3979.17
13:33:51.658	0.47	-3992.9
13:33:51.659	0.471	-3999.01
13:33:51.660	0.472	-3996.72
13:33:51.661	0.473	-4003.59
13:33:51.662	0.474	-4014.27
13:33:51.663	0.475	-4015.03
13:33:51.664	0.476	-4033.34
13:33:51.665	0.477	-4041.73
13:33:51.666	0.478	-4027.24
13:33:51.667	0.479	-4018.84
13:33:51.668	0.48	-4003.59
13:33:51.669	0.481	-3984.51
13:33:51.670	0.482	-4003.59
13:33:51.671	0.483	-4003.59
13:33:51.672	0.484	-3980.7
13:33:51.673	0.485	-3981.46
13:33:51.674	0.486	-3977.65
13:33:51.675	0.487	-3970.78
13:33:51.676	0.488	-3978.41
13:33:51.677	0.489	-3999.01
13:33:51.678	0.49	-4007.4
13:33:51.679	0.491	-3990.62
13:33:51.680	0.492	-3978.41
13:33:51.681	0.493	-3972.31
13:33:51.682	0.494	-3950.94
13:33:51.683	0.495	-3958.57
13:33:51.684	0.496	-3974.59
13:33:51.685	0.497	-3972.31
13:33:51.686	0.498	-3967.73
13:33:51.687	0.499	-3963.15
13:33:51.688	0.5	-3962.39
13:33:51.689	0.501	-3963.15
13:33:51.690	0.502	-3975.36
13:33:51.691	0.503	-3992.14
13:33:51.692	0.504	-3991.38
13:33:51.693	0.505	-3982.99
13:33:51.694	0.506	-3993.67
13:33:51.695	0.507	-3993.67
13:33:51.696	0.508	-3990.62
13:33:51.697	0.509	-3985.28
13:33:51.698	0.51	-3969.25
13:33:51.699	0.511	-3960.1
13:33:51.700	0.512	-3979.93
13:33:51.701	0.513	-3978.41
13:33:51.702	0.514	-3976.88
13:33:51.703	0.515	-3968.49
13:33:51.704	0.516	-3960.1
13:33:51.705	0.517	-3966.2
13:33:51.706	0.518	-3968.49
13:33:51.707	0.519	-3960.1
13:33:51.708	0.52	-3952.47
13:33:51.709	0.521	-3958.57
13:33:51.710	0.522	-3968.49
13:33:51.711	0.523	-3959.34
13:33:51.712	0.524	-3968.49
13:33:51.713	0.525	-4004.35
13:33:51.714	0.526	-4018.84
13:33:51.715	0.527	-3996.72
13:33:51.716	0.528	-3974.59
13:33:51.717	0.529	-3967.73
13:33:51.718	0.53	-3986.04
13:33:51.719	0.531	-3987.56
13:33:51.720	0.532	-3984.51
13:33:51.721	0.533	-3983.75
13:33:51.722	0.534	-3988.33
13:33:51.723	0.535	-3982.99
13:33:51.724	0.536	-3982.22
13:33:51.725	0.537	-3992.9
13:33:51.726	0.538	-4000.53
13:33:51.727	0.539	-4003.59
13:33:51.728	0.54	-4014.27
13:33:51.729	0.541	-4043.26
13:33:51.730	0.542	-4044.78
13:33:51.731	0.543	-4034.87
13:33:51.732	0.544	-4035.63
13:33:51.733	0.545	-4018.08
13:33:51.734	0.546	-4005.11
13:33:51.735	0.547	-4015.79
13:33:51.736	0.548	-4043.26
13:33:51.737	0.549	-4040.97
13:33:51.738	0.55	-4023.42
13:33:51.739	0.551	-3997.48
13:33:51.740	0.552	-3992.14
13:33:51.741	0.553	-3996.72
13:33:51.742	0.554	-4006.64
13:33:51.743	0.555	-4018.84
13:33:51.744	0.556	-4030.29
13:33:51.745	0.557	-4036.39
13:33:51.746	0.558	-4034.87
13:33:51.747	0.559	-4020.37
13:33:51.748	0.56	-4004.35
13:33:51.749	0.561	-4032.58
13:33:51.750	0.562	-4045.55
13:33:51.751	0.563	-4020.37
13:33:51.752	0.564	-3993.67
13:33:51.753	0.565	-3999.01
13:33:51.754	0.566	-4008.93
13:33:51.755	0.567	-3991.38
13:33:51.756	0.568	-3981.46
13:33:51.757	0.569	-3993.67
13:33:51.758	0.57	-4006.64
13:33:51.759	0.571	-4010.45
13:33:51.760	0.572	-3994.43
13:33:51.761	0.573	-3988.33
13:33:51.762	0.574	-3981.46
13:33:51.763	0.575	-4011.22
13:33:51.764	0.576	-4035.63
13:33:51.765	0.577	-4024.19
13:33:51.766	0.578	-4010.45
13:33:51.767	0.579	-3977.65
13:33:51.768	0.58	-3972.31
13:33:51.769	0.581	-3999.01
13:33:51.770	0.582	-4018.84
13:33:51.771	0.583	-4008.93
13:33:51.772	0.584	-4000.53
13:33:51.773	0.585	-4006.64
13:33:51.774	0.586	-4009.69
13:33:51.775	0.587	-4002.82
13:33:51.776	0.588	-3986.04
13:33:51.777	0.589	-3993.67
13:33:51.778	0.59	-4018.84
13:33:51.779	0.591	-4033.34
13:33:51.780	0.592	-4044.02
13:33:51.781	0.593	-4034.1
13:33:51.782	0.594	-4025.71
13:33:51.783	0.595	-4044.02
13:33:51.784	0.596	-4049.36
13:33:51.785	0.597	-4043.26
13:33:51.786	0.598	-4040.97
13:33:51.787	0.599	-4044.78
13:33:51.788	0.6	-4039.44
13:33:51.789	0.601	-4034.1
13:33:51.790	0.602	-4038.68
13:33:51.791	0.603	-4047.07
13:33:51.792	0.604	-4047.07
13:33:51.793	0.605	-4055.47
13:33:51.794	0.606	-4066.91
13:33:51.795	0.607	-4060.81
13:33:51.796	0.608	-4061.57
13:33:51.797	0.609	-4059.28
13:33:51.798	0.61	-4033.34
13:33:51.799	0.611	-4028.76
13:33:51.800	0.612	-4033.34
13:33:51.801	0.613	-4034.87
13:33:51.802	0.614	-4035.63
13:33:51.803	0.615	-4040.21
13:33:51.804	0.616	-4029.53
13:33:51.805	0.617	-4015.03
13:33:51.806	0.618	-4033.34
13:33:51.807	0.619	-4042.5
13:33:51.808	0.62	-4030.29
13:33:51.809	0.621	-4019.61
13:33:51.810	0.622	-4021.9
13:33:51.811	0.623	-3999.01
13:33:51.812	0.624	-3970.02
13:33:51.813	0.625	-3963.15
13:33:51.814	0.626	-3957.81
13:33:51.815	0.627	-3944.84
13:33:51.816	0.628	-3920.42
13:33:51.817	0.629	-3893.72
13:33:51.818	0.63	-3880.75
13:33:51.819	0.631	-3871.6
13:33:51.820	0.632	-3852.52
13:33:51.821	0.633	-3806.74
13:33:51.822	0.634	-3746.47
13:33:51.823	0.635	-3707.56
13:33:51.824	0.636	-3679.33
13:33:51.825	0.637	-3640.42
13:33:51.826	0.638	-3619.82
13:33:51.827	0.639	-3603.04
13:33:51.828	0.64	-3570.23
13:33:51.829	0.641	-3583.96
13:33:51.830	0.642	-3610.67
13:33:51.831	0.643	-3615.24
13:33:51.832	0.644	-3579.39
13:33:51.833	0.645	-3559.55
13:33:51.834	0.646	-3567.94
13:33:51.835	0.647	-3546.58
13:33:51.836	0.648	-3526.74	mark
13:33:51.837	0.649	-3537.42
13:33:51.838	0.65	-3567.94
13:33:51.839	0.651	-3627.45
13:33:51.840	0.652	-3679.33
13:33:51.841	0.653	-3708.32
13:33:51.842	0.654	-3722.82
13:33:51.843	0.655	-3757.15
13:33:51.844	0.656	-3802.93
13:33:51.845	0.657	-3848.71
13:33:51.846	0.658	-3908.22
13:33:51.847	0.659	-3961.62
13:33:51.848	0.66	-3989.09
13:33:51.849	0.661	-4020.37
13:33:51.850	0.662	-4037.16
13:33:51.851	0.663	-4040.21
13:33:51.852	0.664	-4075.3
13:33:51.853	0.665	-4110.4
13:33:51.854	0.666	-4136.34
13:33:51.855	0.667	-4181.35
13:33:51.856	0.668	-4227.89
13:33:51.857	0.669	-4262.23
13:33:51.858	0.67	-4282.83
13:33:51.859	0.671	-4275.2
13:33:51.860	0.672	-4272.14
13:33:51.861	0.673	-4234.76
13:33:51.862	0.674	-4203.48
13:33:51.863	0.675	-4220.26
13:33:51.864	0.676	-4206.53
13:33:51.865	0.677	-4149.31
13:33:51.866	0.678	-4108.87
13:33:51.867	0.679	-4094.38
13:33:51.868	0.68	-4103.53
13:33:51.869	0.681	-4106.58
13:33:51.870	0.682	-4102.77
13:33:51.871	0.683	-4066.15
13:33:51.872	0.684	-4043.26
13:33:51.873	0.685	-4044.78
13:33:51.874	0.686	-4052.41
13:33:51.875	0.687	-4034.87
13:33:51.876	0.688	-4037.16
13:33:51.877	0.689	-4043.26
13:33:51.878	0.69	-4031.05
13:33:51.879	0.691	-4018.08
13:33:51.880	0.692	-4016.56
13:33:51.881	0.693	-4008.93
13:33:51.882	0.694	-4008.16
13:33:51.883	0.695	-4010.45
13:33:51.884	0.696	-4008.16
13:33:51.885	0.697	-4013.5
13:33:51.886	0.698	-4002.06
13:33:51.887	0.699	-3993.67
13:33:51.888	0.7	-4006.64
13:33:51.889	0.701	-4003.59
13:33:51.890	0.702	-3990.62
13:33:51.891	0.703	-3989.09
13:33:51.892	0.704	-3979.93
13:33:51.893	0.705	-3982.22
13:33:51.894	0.706	-3999.01
13:33:51.895	0.707	-4000.53
13:33:51.896	0.708	-4004.35
13:33:51.897	0.709	-4011.98
13:33:51.898	0.71	-3998.25
13:33:51.899	0.711	-3982.99
13:33:51.900	0.712	-3979.93
13:33:51.901	0.713	-3995.96
13:33:51.902	0.714	-4003.59
13:33:51.903	0.715	-4002.82
13:33:51.904	0.716	-4002.82
13:33:51.905	0.717	-4008.93
13:33:51.906	0.718	-3989.09
13:33:51.907	0.719	-3969.25
13:33:51.908	0.72	-3962.39
13:33:51.909	0.721	-3963.91
13:33:51.910	0.722	-3970.78
13:33:51.911	0.723	-3973.07
13:33:51.912	0.724	-3946.37
13:33:51.913	0.725	-3937.97
13:33:51.914	0.726	-3945.6
13:33:51.915	0.727	-3964.68
13:33:51.916	0.728	-3972.31
13:33:51.917	0.729	-3952.47
13:33:51.918	0.73	-3939.5
13:33:51.919	0.731	-3931.1
13:33:51.920	0.732	-3950.18
13:33:51.921	0.733	-3964.68
13:33:51.922	0.734	-3950.94
13:33:51.923	0.735	-3944.08
13:33:51.924	0.736	-3939.5
13:33:51.925	0.737	-3941.02
13:33:51.926	0.738	-3937.97
13:33:51.927	0.739	-3935.68
13:33:51.928	0.74	-3935.68
13:33:51.929	0.741	-3948.65
13:33:51.930	0.742	-3953.99
13:33:51.931	0.743	-3964.68
13:33:51.932	0.744	-3970.78
13:33:51.933	0.745	-3956.28
13:33:51.934	0.746	-3916.61
13:33:51.935	0.747	-3917.37
13:33:51.936	0.748	-3944.08
13:33:51.937	0.749	-3928.82
13:33:51.938	0.75	-3903.64
13:33:51.939	0.751	-3915.08
13:33:51.940	0.752	-3934.16
13:33:51.941	0.753	-3950.94
13:33:51.942	0.754	-3960.1
13:33:51.943	0.755	-3957.05
13:33:51.944	0.756	-3965.44
13:33:51.945	0.757	-3989.09
13:33:51.946	0.758	-3979.17
13:33:51.947	0.759	-3950.18
13:33:51.948	0.76	-3915.85
13:33:51.949	0.761	-3912.79
13:33:51.950	0.762	-3905.93
13:33:51.951	0.763	-3907.45
13:33:51.952	0.764	-3918.13
13:33:51.953	0.765	-3916.61
13:33:51.954	0.766	-3905.16
13:33:51.955	0.767	-3904.4
13:33:51.956	0.768	-3902.11
13:33:51.957	0.769	-3902.88
13:33:51.958	0.77	-3907.45
13:33:51.959	0.771	-3917.37
13:33:51.960	0.772	-3929.58
13:33:51.961	0.773	-3907.45
13:33:51.962	0.774	-3870.07
13:33:51.963	0.775	-3857.1
13:33:51.964	0.776	-3866.25
13:33:51.965	0.777	-3871.6
13:33:51.966	0.778	-3902.11
13:33:51.967	0.779	-3922.71
13:33:51.968	0.78	-3913.56
13:33:51.969	0.781	-3899.82
13:33:51.970	0.782	-3876.17
13:33:51.971	0.783	-3847.18
13:33:51.972	0.784	-3825.06
13:33:51.973	0.785	-3824.29
13:33:51.974	0.786	-3824.29
13:33:51.975	0.787	-3828.11
13:33:51.976	0.788	-3841.08
13:33:51.977	0.789	-3860.91
13:33:51.978	0.79	-3861.68
13:33:51.979	0.791	-3858.63
13:33:51.980	0.792	-3860.91
13:33:51.981	0.793	-3850.23
13:33:51.982	0.794	-3845.66
13:33:51.983	0.795	-3849.47
13:33:51.984	0.796	-3863.97
13:33:51.985	0.797	-3858.63
13:33:51.986	0.798	-3840.31
13:33:51.987	0.799	-3848.71
13:33:51.988	0.8	-3855.57
13:33:51.989	0.801	-3857.1
13:33:51.990	0.802	-3841.84
13:33:51.991	0.803	-3822.77
13:33:51.992	0.804	-3825.82
13:33:51.993	0.805	-3825.82
13:33:51.994	0.806	-3814.38
13:33:51.995	0.807	-3815.9
13:33:51.996	0.808	-3812.08
13:33:51.997	0.809	-3797.59
13:33:51.998	0.81	-3793.01
13:33:51.999	0.811	-3805.98
13:33:52.000	0.812	-3818.19
13:33:52.001	0.813	-3818.95
13:33:52.002	0.814	-3802.93
13:33:52.003	0.815	-3779.28
13:33:52.004	0.816	-3754.86
13:33:52.005	0.817	-3745.71
13:33:52.006	0.818	-3762.49
13:33:52.007	0.819	-3753.34
13:33:52.008	0.82	-3722.06
13:33:52.009	0.821	-3722.06
13:33:52.010	0.822	-3735.79
13:33:52.011	0.823	-3719.77
13:33:52.012	0.824	-3709.09
13:33:52.013	0.825	-3726.64
13:33:52.014	0.826	-3735.79
13:33:52.015	0.827	-3719.77
13:33:52.016	0.828	-3700.7
13:33:52.017	0.829	-3701.46
13:33:52.018	0.83	-3706.04
13:33:52.019	0.831	-3700.7
13:33:52.020	0.832	-3700.7
13:33:52.021	0.833	-3699.93
13:33:52.022	0.834	-3698.41
13:33:52.023	0.835	-3670.18
13:33:52.024	0.836	-3677.04
13:33:52.025	0.837	-3677.04
13:33:52.026	0.838	-3683.91
13:33:52.027	0.839	-3670.18
13:33:52.028	0.84	-3665.6
13:33:52.029	0.841	-3654.92
13:33:52.030	0.842	-3629.74
13:33:52.031	0.843	-3619.06
13:33:52.032	0.844	-3632.03
13:33:52.033	0.845	-3641.18
13:33:52.034	0.846	-3628.21
13:33:52.035	0.847	-3623.64
13:33:52.036	0.848	-3628.98
13:33:52.037	0.849	-3638.13
13:33:52.038	0.85	-3638.9
13:33:52.039	0.851	-3621.35
13:33:52.040	0.852	-3609.14
13:33:52.041	0.853	-3619.06
13:33:52.042	0.854	-3619.82
13:33:52.043	0.855	-3606.09
13:33:52.044	0.856	-3561.84
13:33:52.045	0.857	-3554.21
13:33:52.046	0.858	-3563.36
13:33:52.047	0.859	-3571.76
13:33:52.048	0.86	-3590.83
13:33:52.049	0.861	-3607.61
13:33:52.050	0.862	-3596.93
13:33:52.051	0.863	-3599.99
13:33:52.052	0.864	-3608.38
13:33:52.053	0.865	-3599.22
13:33:52.054	0.866	-3567.94
13:33:52.055	0.867	-3551.92
13:33:52.056	0.868	-3567.18
13:33:52.057	0.869	-3572.52
13:33:52.058	0.87	-3570.99
13:33:52.059	0.871	-3573.28
13:33:52.060	0.872	-3569.47
13:33:52.061	0.873	-3559.55
13:33:52.062	0.874	-3561.84
13:33:52.063	0.875	-3570.23
13:33:52.064	0.876	-3574.81
13:33:52.065	0.877	-3574.81
13:33:52.066	0.878	-3570.23
13:33:52.067	0.879	-3570.99
13:33:52.068	0.88	-3567.94
13:33:52.069	0.881	-3570.99
13:33:52.070	0.882	-3594.64
13:33:52.071	0.883	-3601.51
13:33:52.072	0.884	-3628.98
13:33:52.073	0.885	-3646.52
13:33:52.074	0.886	-3634.32
13:33:52.075	0.887	-3606.85
13:33:52.076	0.888	-3592.36
13:33:52.077	0.889	-3627.45
13:33:52.078	0.89	-3657.21
13:33:52.079	0.891	-3670.94
13:33:52.080	0.892	-3681.62
13:33:52.081	0.893	-3686.96
13:33:52.082	0.894	-3692.3
13:33:52.083	0.895	-3686.96
13:33:52.084	0.896	-3698.41
13:33:52.085	0.897	-3715.95
13:33:52.086	0.898	-3725.11
13:33:52.087	0.899	-3713.67
13:33:52.088	0.9	-3708.32
13:33:52.089	0.901	-3736.55
13:33:52.090	0.902	-3747.23
13:33:52.091	0.903	-3741.13
13:33:52.092	0.904	-3743.42
13:33:52.093	0.905	-3735.03
13:33:52.094	0.906	-3741.13
13:33:52.095	0.907	-3767.07
13:33:52.096	0.908	-3780.04
13:33:52.097	0.909	-3793.01
13:33:52.098	0.91	-3822.77
13:33:52.099	0.911	-3831.92
13:33:52.100	0.912	-3838.79
13:33:52.101	0.913	-3824.29
13:33:52.102	0.914	-3823.53
13:33:52.103	0.915	-3837.26
13:33:52.104	0.916	-3834.21
13:33:52.105	0.917	-3823.53
13:33:52.106	0.918	-3815.9
13:33:52.107	0.919	-3819.72
13:33:52.108	0.92	-3830.4
13:33:52.109	0.921	-3847.18
13:33:52.110	0.922	-3857.1
13:33:52.111	0.923	-3862.44
13:33:52.112	0.924	-3861.68
13:33:52.113	0.925	-3866.25
13:33:52.114	0.926	-3879.22
13:33:52.115	0.927	-3881.51
13:33:52.116	0.928	-3893.72
13:33:52.117	0.929	-3891.43
13:33:52.118	0.93	-3875.41
13:33:52.119	0.931	-3885.33
13:33:52.120	0.932	-3892.19
13:33:52.121	0.933	-3889.14
13:33:52.122	0.934	-3889.91
13:33:52.123	0.935	-3902.11
13:33:52.124	0.936	-3912.79
13:33:52.125	0.937	-3914.32
13:33:52.126	0.938	-3910.51
13:33:52.127	0.939	-3908.22
13:33:52.128	0.94	-3912.03
13:33:52.129	0.941	-3907.45
13:33:52.130	0.942	-3924.24
13:33:52.131	0.943	-3929.58
13:33:52.132	0.944	-3908.22
13:33:52.133	0.945	-3923.48
13:33:52.134	0.946	-3931.87
13:33:52.135	0.947	-3914.32
13:33:52.136	0.948	-3899.06
13:33:52.137	0.949	-3916.61
13:33:52.138	0.95	-3937.21
13:33:52.139	0.951	-3934.92
13:33:52.140	0.952	-3934.92
13:33:52.141	0.953	-3941.02
13:33:52.142	0.954	-3934.16
13:33:52.143	0.955	-3923.48
13:33:52.144	0.956	-3903.64
13:33:52.145	0.957	-3902.11
13:33:52.146	0.958	-3915.08
13:33:52.147	0.959	-3926.53
13:33:52.148	0.96	-3941.02
13:33:52.149	0.961	-3953.99
13:33:52.150	0.962	-3944.08
13:33:52.151	0.963	-3931.1
13:33:52.152	0.964	-3924.24
13:33:52.153	0.965	-3918.13
13:33:52.154	0.966	-3895.25
13:33:52.155	0.967	-3896.77
13:33:52.156	0.968	-3937.97
13:33:52.157	0.969	-3928.82
13:33:52.158	0.97	-3905.16
13:33:52.159	0.971	-3905.93
13:33:52.160	0.972	-3905.16
13:33:52.161	0.973	-3907.45
13:33:52.162	0.974	-3907.45
13:33:52.163	0.975	-3908.98
13:33:52.164	0.976	-3928.05
13:33:52.165	0.977	-3941.79
13:33:52.166	0.978	-3932.63
13:33:52.167	0.979	-3918.9
13:33:52.168	0.98	-3915.08
13:33:52.169	0.981	-3929.58
13:33:52.170	0.982	-3948.65
13:33:52.171	0.983	-3959.34
13:33:52.172	0.984	-3962.39
13:33:52.173	0.985	-3937.21
13:33:52.174	0.986	-3917.37
13:33:52.175	0.987	-3914.32
13:33:52.176	0.988	-3913.56
13:33:52.177	0.989	-3921.95
13:33:52.178	0.99	-3929.58
13:33:52.179	0.991	-3936.45
13:33:52.180	0.992	-3931.1
13:33:52.181	0.993	-3939.5
13:33:52.182	0.994	-3936.45
13:33:52.183	0.995	-3920.42
13:33:52.184	0.996	-3925
13:33:52.185	0.997	-3936.45
13:33:52.186	0.998	-3934.92
13:33:52.187	0.999	-3929.58
13:33:52.188	1	-3937.21
13:33:52.188	1.001	-3941.79
13:33:52.190	1.002	-3940.26
13:33:52.190	1.003	-3931.87
13:33:52.192	1.004	-3924.24
13:33:52.192	1.005	-3914.32
13:33:52.194	1.006	-3898.3
13:33:52.194	1.007	-3889.91
13:33:52.196	1.008	-3897.54
13:33:52.196	1.009	-3902.88
13:33:52.198	1.01	-3910.51
13:33:52.198	1.011	-3918.13
13:33:52.200	1.012	-3924.24
13:33:52.200	1.013	-3909.74
13:33:52.202	1.014	-3906.69
13:33:52.202	1.015	-3903.64
13:33:52.204	1.016	-3907.45
13:33:52.204	1.017	-3923.48
13:33:52.206	1.018	-3916.61
13:33:52.206	1.019	-3886.09
13:33:52.208	1.02	-3881.51
13:33:52.208	1.021	-3888.38
13:33:52.210	1.022	-3908.22
13:33:52.210	1.023	-3918.13
13:33:52.212	1.024	-3900.59
13:33:52.213	1.025	-3866.25
13:33:52.214	1.026	-3871.6
13:33:52.215	1.027	-3901.35
13:33:52.216	1.028	-3905.93
13:33:52.217	1.029	-3898.3
13:33:52.218	1.03	-3880.75
13:33:52.219	1.031	-3870.07
13:33:52.220	1.032	-3877.7
13:33:52.221	1.033	-3883.8
13:33:52.222	1.034	-3867.02
13:33:52.223	1.035	-3854.81
13:33:52.224	1.036	-3864.73
13:33:52.225	1.037	-3883.8
13:33:52.226	1.038	-3904.4
13:33:52.227	1.039	-3916.61
13:33:52.228	1.04	-3915.85
13:33:52.229	1.041	-3901.35
13:33:52.230	1.042	-3879.99
13:33:52.231	1.043	-3889.14
13:33:52.232	1.044	-3909.74
13:33:52.233	1.045	-3918.13
13:33:52.234	1.046	-3912.03
13:33:52.235	1.047	-3897.54
13:33:52.236	1.048	-3897.54
13:33:52.237	1.049	-3915.85
13:33:52.238	1.05	-3922.71
13:33:52.239	1.051	-3900.59
13:33:52.240	1.052	-3870.83
13:33:52.241	1.053	-3863.97
13:33:52.242	1.054	-3870.07
13:33:52.243	1.055	-3874.65
13:33:52.244	1.056	-3876.17
13:33:52.245	1.057	-3864.73
13:33:52.246	1.058	-3869.31
13:33:52.247	1.059	-3895.25
13:33:52.248	1.06	-3931.1
13:33:52.249	1.061	-3953.99
13:33:52.250	1.062	-3931.1
13:33:52.251	1.063	-3894.48
13:33:52.252	1.064	-3886.85
13:33:52.253	1.065	-3899.82
13:33:52.254	1.066	-3892.96
13:33:52.255	1.067	-3869.31
13:33:52.256	1.068	-3855.57
13:33:52.257	1.069	-3860.15
13:33:52.258	1.07	-3876.94
13:33:52.259	1.071	-3889.14
13:33:52.260	1.072	-3875.41
13:33:52.261	1.073	-3877.7
13:33:52.262	1.074	-3893.72
13:33:52.263	1.075	-3876.17
13:33:52.264	1.076	-3870.83
13:33:52.265	1.077	-3863.2
13:33:52.266	1.078	-3865.49
13:33:52.267	1.079	-3864.73
13:33:52.268	1.08	-3868.54
13:33:52.269	1.081	-3888.38
13:33:52.270	1.082	-3868.54
13:33:52.271	1.083	-3872.36
13:33:52.272	1.084	-3886.09
13:33:52.273	1.085	-3869.31
13:33:52.274	1.086	-3876.17
13:33:52.275	1.087	-3883.04
13:33:52.276	1.088	-3872.36
13:33:52.277	1.089	-3870.07
13:33:52.278	1.09	-3867.78
13:33:52.279	1.091	-3883.04
13:33:52.280	1.092	-3892.96
13:33:52.281	1.093	-3904.4
13:33:52.282	1.094	-3905.16
13:33:52.283	1.095	-3902.11
13:33:52.284	1.096	-3864.73
13:33:52.285	1.097	-3831.16
13:33:52.286	1.098	-3843.37
13:33:52.287	1.099	-3863.97
13:33:52.288	1.1	-3861.68
13:33:52.289	1.101	-3872.36
13:33:52.290	1.102	-3892.96
13:33:52.291	1.103	-3881.51
13:33:52.292	1.104	-3880.75
13:33:52.293	1.105	-3880.75
13:33:52.294	1.106	-3873.12
13:33:52.295	1.107	-3877.7
13:33:52.296	1.108	-3880.75
13:33:52.297	1.109	-3879.22
13:33:52.298	1.11	-3896.01
13:33:52.299	1.111	-3915.08
13:33:52.300	1.112	-3901.35
13:33:52.301	1.113	-3884.57
13:33:52.302	1.114	-3865.49
13:33:52.303	1.115	-3854.81
13:33:52.304	1.116	-3862.44
13:33:52.305	1.117	-3876.94
13:33:52.306	1.118	-3878.46
13:33:52.307	1.119	-3879.99
13:33:52.308	1.12	-3877.7
13:33:52.309	1.121	-3861.68
13:33:52.310	1.122	-3861.68
13:33:52.311	1.123	-3855.57
13:33:52.312	1.124	-3848.71
13:33:52.313	1.125	-3871.6
13:33:52.314	1.126	-3883.04
13:33:52.315	1.127	-3867.02
13:33:52.316	1.128	-3854.81
13:33:52.317	1.129	-3867.78
13:33:52.318	1.13	-3880.75
13:33:52.319	1.131	-3883.8
13:33:52.320	1.132	-3896.01
13:33:52.321	1.133	-3916.61
13:33:52.322	1.134	-3908.98
13:33:52.323	1.135	-3901.35
13:33:52.324	1.136	-3908.22
13:33:52.325	1.137	-3937.21
13:33:52.326	1.138	-3927.29
13:33:52.327	1.139	-3893.72
13:33:52.328	1.14	-3879.99
13:33:52.329	1.141	-3880.75
13:33:52.330	1.142	-3883.04
13:33:52.331	1.143	-3868.54
13:33:52.332	1.144	-3869.31
13:33:52.333	1.145	-3881.51
13:33:52.334	1.146	-3890.67
13:33:52.335	1.147	-3886.09
13:33:52.336	1.148	-3857.1
13:33:52.337	1.149	-3863.2
13:33:52.338	1.15	-3863.97
13:33:52.339	1.151	-3867.78
13:33:52.340	1.152	-3871.6
13:33:52.341	1.153	-3862.44
13:33:52.342	1.154	-3856.34
13:33:52.343	1.155	-3859.39
13:33:52.344	1.156	-3864.73
13:33:52.345	1.157	-3871.6
13:33:52.346	1.158	-3891.43
13:33:52.347	1.159	-3895.25
13:33:52.348	1.16	-3873.88
13:33:52.349	1.161	-3862.44
13:33:52.350	1.162	-3859.39
13:33:52.351	1.163	-3866.25
13:33:52.352	1.164	-3878.46
13:33:52.353	1.165	-3896.77
13:33:52.354	1.166	-3899.82
13:33:52.355	1.167	-3851.76
13:33:52.356	1.168	-3814.38
13:33:52.357	1.169	-3841.08
13:33:52.358	1.17	-3857.1
13:33:52.359	1.171	-3856.34
13:33:52.360	1.172	-3864.73
13:33:52.361	1.173	-3878.46
13:33:52.362	1.174	-3874.65
13:33:52.363	1.175	-3877.7
13:33:52.364	1.176	-3881.51
13:33:52.365	1.177	-3895.25
13:33:52.366	1.178	-3904.4
13:33:52.367	1.179	-3887.62
13:33:52.368	1.18	-3884.57
13:33:52.369	1.181	-3883.04
13:33:52.370	1.182	-3874.65
13:33:52.371	1.183	-3865.49
13:33:52.372	1.184	-3869.31
13:33:52.373	1.185	-3858.63
13:33:52.374	1.186	-3863.2
13:33:52.375	1.187	-3876.17
13:33:52.376	1.188	-3887.62
13:33:52.377	1.189	-3894.48
13:33:52.378	1.19	-3889.14
13:33:52.379	1.191	-3886.85
13:33:52.380	1.192	-3899.82
13:33:52.381	1.193	-3900.59
13:33:52.382	1.194	-3894.48
13:33:52.383	1.195	-3866.25
13:33:52.384	1.196	-3845.66
13:33:52.385	1.197	-3861.68
13:33:52.386	1.198	-3880.75
13:33:52.387	1.199	-3905.16
13:33:52.388	1.2	-3913.56
13:33:52.389	1.201	-3900.59
13:33:52.390	1.202	-3892.19
13:33:52.391	1.203	-3883.04
13:33:52.392	1.204	-3876.17
13:33:52.393	1.205	-3886.09
13:33:52.394	1.206	-3896.77
13:33:52.395	1.207	-3894.48
13:33:52.396	1.208	-3881.51
13:33:52.397	1.209	-3890.67
13:33:52.398	1.21	-3897.54
13:33:52.399	1.211	-3889.14
13:33:52.400	1.212	-3883.04
13:33:52.401	1.213	-3878.46
13:33:52.402	1.214	-3895.25
13:33:52.403	1.215	-3907.45
13:33:52.404	1.216	-3896.77
13:33:52.405	1.217	-3881.51
13:33:52.406	1.218	-3871.6
13:33:52.407	1.219	-3858.63
13:33:52.408	1.22	-3844.13
13:33:52.409	1.221	-3863.2
13:33:52.410	1.222	-3876.94
13:33:52.411	1.223	-3877.7
13:33:52.412	1.224	-3889.14
13:33:52.413	1.225	-3879.99
13:33:52.414	1.226	-3867.02
13:33:52.415	1.227	-3857.86
13:33:52.416	1.228	-3873.12
13:33:52.417	1.229	-3892.19
13:33:52.418	1.23	-3870.83
13:33:52.419	1.231	-3852.52
13:33:52.420	1.232	-3853.28
13:33:52.421	1.233	-3841.84
13:33:52.422	1.234	-3843.37
13:33:52.423	1.235	-3850.23
13:33:52.424	1.236	-3857.86
13:33:52.425	1.237	-3858.63
13:33:52.426	1.238	-3832.69
13:33:52.427	1.239	-3833.45
13:33:52.428	1.24	-3855.57
13:33:52.429	1.241	-3875.41
13:33:52.430	1.242	-3860.15
13:33:52.431	1.243	-3841.08
13:33:52.432	1.244	-3828.11
13:33:52.433	1.245	-3833.45
13:33:52.434	1.246	-3846.42
13:33:52.435	1.247	-3849.47
13:33:52.436	1.248	-3851.76
13:33:52.437	1.249	-3863.2
13:33:52.438	1.25	-3873.88
13:33:52.439	1.251	-3878.46
13:33:52.440	1.252	-3859.39
13:33:52.441	1.253	-3838.79
13:33:52.442	1.254	-3834.21
13:33:52.443	1.255	-3848.71
13:33:52.444	1.256	-3868.54
13:33:52.445	1.257	-3861.68
13:33:52.446	1.258	-3864.73
13:33:52.447	1.259	-3852.52
13:33:52.448	1.26	-3836.5
13:33:52.449	1.261	-3834.97
13:33:52.450	1.262	-3838.79
13:33:52.451	1.263	-3834.97
13:33:52.452	1.264	-3836.5
13:33:52.453	1.265	-3830.4
13:33:52.454	1.266	-3826.58
13:33:52.455	1.267	-3829.63
13:33:52.456	1.268	-3828.87
13:33:52.457	1.269	-3825.82
13:33:52.458	1.27	-3827.34
13:33:52.459	1.271	-3837.26
13:33:52.460	1.272	-3853.28
13:33:52.461	1.273	-3832.69
13:33:52.462	1.274	-3831.16
13:33:52.463	1.275	-3837.26
13:33:52.464	1.276	-3834.21
13:33:52.465	1.277	-3828.87
13:33:52.466	1.278	-3815.14
13:33:52.467	1.279	-3813.61
13:33:52.468	1.28	-3831.16
13:33:52.469	1.281	-3836.5
13:33:52.470	1.282	-3827.34
13:33:52.471	1.283	-3827.34
13:33:52.472	1.284	-3818.19
13:33:52.473	1.285	-3805.98
13:33:52.474	1.286	-3825.06
13:33:52.475	1.287	-3823.53
13:33:52.476	1.288	-3826.58
13:33:52.477	1.289	-3828.87
13:33:52.478	1.29	-3822
13:33:52.479	1.291	-3819.72
13:33:52.480	1.292	-3828.87
13:33:52.481	1.293	-3832.69
13:33:52.482	1.294	-3825.82
13:33:52.483	1.295	-3815.9
13:33:52.484	1.296	-3848.71
13:33:52.485	1.297	-3884.57
13:33:52.486	1.298	-3890.67
13:33:52.487	1.299	-3888.38
13:33:52.488	1.3	-3872.36
13:33:52.489	1.301	-3836.5
13:33:52.490	1.302	-3798.35
13:33:52.491	1.303	-3785.38
13:33:52.492	1.304	-3799.88
13:33:52.493	1.305	-3817.43
13:33:52.494	1.306	-3820.48
13:33:52.495	1.307	-3821.24
13:33:52.496	1.308	-3828.87
13:33:52.497	1.309	-3843.37
13:33:52.498	1.31	-3842.6
13:33:52.499	1.311	-3837.26
13:33:52.500	1.312	-3828.87
13:33:52.501	1.313	-3851
13:33:52.502	1.314	-3886.85
13:33:52.503	1.315	-3889.91
13:33:52.504	1.316	-3867.78
13:33:52.505	1.317	-3858.63
13:33:52.506	1.318	-3867.02
13:33:52.507	1.319	-3865.49
13:33:52.508	1.32	-3867.02
13:33:52.509	1.321	-3860.91
13:33:52.510	1.322	-3863.2
13:33:52.511	1.323	-3878.46
13:33:52.512	1.324	-3896.77
13:33:52.513	1.325	-3904.4
13:33:52.514	1.326	-3919.66
13:33:52.515	1.327	-3941.02
13:33:52.516	1.328	-3935.68
13:33:52.517	1.329	-3900.59
13:33:52.518	1.33	-3858.63
13:33:52.519	1.331	-3849.47
13:33:52.520	1.332	-3851
13:33:52.521	1.333	-3869.31
13:33:52.522	1.334	-3879.99
13:33:52.523	1.335	-3876.17
13:33:52.524	1.336	-3869.31
13:33:52.525	1.337	-3860.91
13:33:52.526	1.338	-3849.47
13:33:52.527	1.339	-3829.63
13:33:52.528	1.34	-3848.71
13:33:52.529	1.341	-3869.31
13:33:52.530	1.342	-3879.22
13:33:52.531	1.343	-3875.41
13:33:52.532	1.344	-3859.39
13:33:52.533	1.345	-3861.68
13:33:52.534	1.346	-3867.78
13:33:52.535	1.347	-3868.54
13:33:52.536	1.348	-3862.44
13:33:52.537	1.349	-3870.07
13:33:52.538	1.35	-3861.68
13:33:52.539	1.351	-3833.45
13:33:52.540	1.352	-3849.47
13:33:52.541	1.353	-3859.39
13:33:52.542	1.354	-3870.07
13:33:52.543	1.355	-3880.75
13:33:52.544	1.356	-3886.09
13:33:52.545	1.357	-3876.17
13:33:52.546	1.358	-3854.05
13:33:52.547	1.359	-3855.57
13:33:52.548	1.36	-3873.88
13:33:52.549	1.361	-3893.72
13:33:52.550	1.362	-3907.45
13:33:52.551	1.363	-3915.08
13:33:52.552	1.364	-3919.66
13:33:52.553	1.365	-3928.05
13:33:52.554	1.366	-3935.68
13:33:52.555	1.367	-3923.48
13:33:52.556	1.368	-3904.4
13:33:52.557	1.369	-3878.46
13:33:52.558	1.37	-3863.2
13:33:52.559	1.371	-3854.81
13:33:52.560	1.372	-3839.55
13:33:52.561	1.373	-3828.11
13:33:52.562	1.374	-3841.84
13:33:52.563	1.375	-3857.1
13:33:52.564	1.376	-3874.65
13:33:52.565	1.377	-3871.6
13:33:52.566	1.378	-3870.83
13:33:52.567	1.379	-3870.83
13:33:52.568	1.38	-3869.31
13:33:52.569	1.381	-3867.02
13:33:52.570	1.382	-3862.44
13:33:52.571	1.383	-3854.81
13:33:52.572	1.384	-3847.94
13:33:52.573	1.385	-3838.79
13:33:52.574	1.386	-3841.08
13:33:52.575	1.387	-3852.52
13:33:52.576	1.388	-3876.94
13:33:52.577	1.389	-3895.25
13:33:52.578	1.39	-3879.22
13:33:52.579	1.391	-3838.79
13:33:52.580	1.392	-3851
13:33:52.581	1.393	-3881.51
13:33:52.582	1.394	-3893.72
13:33:52.583	1.395	-3873.12
13:33:52.584	1.396	-3824.29
13:33:52.585	1.397	-3821.24
13:33:52.586	1.398	-3829.63
13:33:52.587	1.399	-3835.74
13:33:52.588	1.4	-3832.69
13:33:52.589	1.401	-3811.32
13:33:52.590	1.402	-3773.17
13:33:52.591	1.403	-3742.66
13:33:52.592	1.404	-3715.95
13:33:52.593	1.405	-3688.49
13:33:52.594	1.406	-3665.6
13:33:52.595	1.407	-3649.58
13:33:52.596	1.408	-3617.53
13:33:52.597	1.409	-3563.36
13:33:52.598	1.41	-3509.19
13:33:52.599	1.411	-3471.05
13:33:52.600	1.412	-3450.45
13:33:52.601	1.413	-3457.31
13:33:52.602	1.414	-3465.71
13:33:52.603	1.415	-3437.48
13:33:52.604	1.416	-3409.25
13:33:52.605	1.417	-3405.43	mark
13:33:52.606	1.418	-3411.54
13:33:52.607	1.419	-3415.35
13:33:52.608	1.42	-3413.06
13:33:52.609	1.421	-3410.77
13:33:52.610	1.422	-3422.98
13:33:52.611	1.423	-3429.85
13:33:52.612	1.424	-3435.95
13:33:52.613	1.425	-3447.4
13:33:52.614	1.426	-3487.07
13:33:52.615	1.427	-3535.9
13:33:52.616	1.428	-3584.73
13:33:52.617	1.429	-3639.66
13:33:52.618	1.43	-3697.64
13:33:52.619	1.431	-3746.47
13:33:52.620	1.432	-3786.14
13:33:52.621	1.433	-3822
13:33:52.622	1.434	-3854.05
13:33:52.623	1.435	-3857.86
13:33:52.624	1.436	-3870.07
13:33:52.625	1.437	-3905.93
13:33:52.626	1.438	-3935.68
13:33:52.627	1.439	-3974.59
13:33:52.628	1.44	-4028.76
13:33:52.629	1.441	-4060.81
13:33:52.630	1.442	-4089.04
13:33:52.631	1.443	-4106.58
13:33:52.632	1.444	-4116.5
13:33:52.633	1.445	-4129.47
13:33:52.634	1.446	-4126.42
13:33:52.635	1.447	-4106.58
13:33:52.636	1.448	-4085.99
13:33:52.637	1.449	-4069.96
13:33:52.638	1.45	-4059.28
13:33:52.639	1.451	-4034.87
13:33:52.640	1.452	-4011.98
13:33:52.641	1.453	-3988.33
13:33:52.642	1.454	-3966.2
13:33:52.643	1.455	-3959.34
13:33:52.644	1.456	-3960.86
13:33:52.645	1.457	-3970.02
13:33:52.646	1.458	-3966.96
13:33:52.647	1.459	-3937.21
13:33:52.648	1.46	-3919.66
13:33:52.649	1.461	-3902.88
13:33:52.650	1.462	-3906.69
13:33:52.651	1.463	-3892.19
13:33:52.652	1.464	-3892.19
13:33:52.653	1.465	-3912.79
13:33:52.654	1.466	-3903.64
13:33:52.655	1.467	-3883.8
13:33:52.656	1.468	-3857.86
13:33:52.657	1.469	-3834.97
13:33:52.658	1.47	-3841.84
13:33:52.659	1.471	-3852.52
13:33:52.660	1.472	-3853.28
13:33:52.661	1.473	-3841.84
13:33:52.662	1.474	-3842.6
13:33:52.663	1.475	-3836.5
13:33:52.664	1.476	-3847.18
13:33:52.665	1.477	-3862.44
13:33:52.666	1.478	-3869.31
13:33:52.667	1.479	-3854.05
13:33:52.668	1.48	-3843.37
13:33:52.669	1.481	-3838.03
13:33:52.670	1.482	-3825.06
13:33:52.671	1.483	-3838.03
13:33:52.672	1.484	-3849.47
13:33:52.673	1.485	-3861.68
13:33:52.674	1.486	-3847.18
13:33:52.675	1.487	-3810.56
13:33:52.676	1.488	-3786.91
13:33:52.677	1.489	-3802.17
13:33:52.678	1.49	-3835.74
13:33:52.679	1.491	-3861.68
13:33:52.680	1.492	-3860.91
13:33:52.681	1.493	-3837.26
13:33:52.682	1.494	-3818.19
13:33:52.683	1.495	-3801.4
13:33:52.684	1.496	-3812.85
13:33:52.685	1.497	-3820.48
13:33:52.686	1.498	-3792.25
13:33:52.687	1.499	-3790.72
13:33:52.688	1.5	-3809.03
13:33:52.689	1.501	-3812.08
13:33:52.690	1.502	-3815.14
13:33:52.691	1.503	-3808.27
13:33:52.692	1.504	-3804.45
13:33:52.693	1.505	-3820.48
13:33:52.694	1.506	-3815.9
13:33:52.695	1.507	-3796.06
13:33:52.696	1.508	-3786.91
13:33:52.697	1.509	-3792.25
13:33:52.698	1.51	-3796.83
13:33:52.699	1.511	-3802.93
13:33:52.700	1.512	-3809.8
13:33:52.701	1.513	-3801.4
13:33:52.702	1.514	-3788.43
13:33:52.703	1.515	-3799.11
13:33:52.704	1.516	-3800.64
13:33:52.705	1.517	-3796.83
13:33:52.706	1.518	-3793.01
13:33:52.707	1.519	-3796.06
13:33:52.708	1.52	-3789.96
13:33:52.709	1.521	-3797.59
13:33:52.710	1.522	-3803.69
13:33:52.711	1.523	-3803.69
13:33:52.712	1.524	-3767.83
13:33:52.713	1.525	-3752.57
13:33:52.714	1.526	-3762.49
13:33:52.715	1.527	-3765.54
13:33:52.716	1.528	-3751.81
13:33:52.717	1.529	-3755.63
13:33:52.718	1.53	-3773.17
13:33:52.719	1.531	-3789.2
13:33:52.720	1.532	-3791.48
13:33:52.721	1.533	-3791.48
13:33:52.722	1.534	-3785.38
13:33:52.723	1.535	-3767.83
13:33:52.724	1.536	-3760.2
13:33:52.725	1.537	-3760.97
13:33:52.726	1.538	-3769.36
13:33:52.727	1.539	-3788.43
13:33:52.728	1.54	-3793.01
13:33:52.729	1.541	-3777.75
13:33:52.730	1.542	-3763.26
13:33:52.731	1.543	-3767.07
13:33:52.732	1.544	-3758.68
13:33:52.733	1.545	-3754.86
13:33:52.734	1.546	-3780.8
13:33:52.735	1.547	-3806.74
13:33:52.736	1.548	-3799.11
13:33:52.737	1.549	-3776.99
13:33:52.738	1.55	-3768.6
13:33:52.739	1.551	-3755.63
13:33:52.740	1.552	-3739.6
13:33:52.741	1.553	-3743.42
13:33:52.742	1.554	-3748.76
13:33:52.743	1.555	-3715.19
13:33:52.744	1.556	-3699.17
13:33:52.745	1.557	-3729.69
13:33:52.746	1.558	-3749.52
13:33:52.747	1.559	-3748.76
13:33:52.748	1.56	-3744.95
13:33:52.749	1.561	-3747.23
13:33:52.750	1.562	-3741.89
13:33:52.751	1.563	-3731.21
13:33:52.752	1.564	-3728.16
13:33:52.753	1.565	-3731.21
13:33:52.754	1.566	-3737.32
13:33:52.755	1.567	-3735.03
13:33:52.756	1.568	-3716.72
13:33:52.757	1.569	-3702.22
13:33:52.758	1.57	-3706.8
13:33:52.759	1.571	-3712.14
13:33:52.760	1.572	-3711.38
13:33:52.761	1.573	-3714.43
13:33:52.762	1.574	-3702.22
13:33:52.763	1.575	-3693.07
13:33:52.764	1.576	-3702.22
13:33:52.765	1.577	-3708.32
13:33:52.766	1.578	-3701.46
13:33:52.767	1.579	-3695.35
13:33:52.768	1.58	-3693.83
13:33:52.769	1.581	-3694.59
13:33:52.770	1.582	-3699.93
13:33:52.771	1.583	-3714.43
13:33:52.772	1.584	-3709.09
13:33:52.773	1.585	-3683.15
13:33:52.774	1.586	-3661.02
13:33:52.775	1.587	-3652.63
13:33:52.776	1.588	-3641.18
13:33:52.777	1.589	-3633.55
13:33:52.778	1.59	-3638.9
13:33:52.779	1.591	-3660.26
13:33:52.780	1.592	-3661.78
13:33:52.781	1.593	-3641.18
13:33:52.782	1.594	-3625.16
13:33:52.783	1.595	-3616.01
13:33:52.784	1.596	-3612.19
13:33:52.785	1.597	-3604.56
13:33:52.786	1.598	-3608.38
13:33:52.787	1.599	-3612.19
13:33:52.788	1.6	-3613.72
13:33:52.789	1.601	-3616.01
13:33:52.790	1.602	-3606.09
13:33:52.791	1.603	-3604.56
13:33:52.792	1.604	-3596.17
13:33:52.793	1.605	-3590.07
13:33:52.794	1.606	-3569.47
13:33:52.795	1.607	-3564.89
13:33:52.796	1.608	-3583.96
13:33:52.797	1.609	-3583.2
13:33:52.798	1.61	-3563.36
13:33:52.799	1.611	-3547.34
13:33:52.800	1.612	-3541.24
13:33:52.801	1.613	-3538.19
13:33:52.802	1.614	-3538.19
13:33:52.803	1.615	-3563.36
13:33:52.804	1.616	-3565.65
13:33:52.805	1.617	-3550.39
13:33:52.806	1.618	-3514.53
13:33:52.807	1.619	-3487.07
13:33:52.808	1.62	-3495.46
13:33:52.809	1.621	-3519.11
13:33:52.810	1.622	-3514.53
13:33:52.811	1.623	-3500.04
13:33:52.812	1.624	-3500.04
13:33:52.813	1.625	-3504.62
13:33:52.814	1.626	-3519.87
13:33:52.815	1.627	-3520.64
13:33:52.816	1.628	-3513.01
13:33:52.817	1.629	-3498.51
13:33:52.818	1.63	-3494.7
13:33:52.819	1.631	-3513.77
13:33:52.820	1.632	-3512.25
13:33:52.821	1.633	-3484.02
13:33:52.822	1.634	-3471.05
13:33:52.823	1.635	-3469.52
13:33:52.824	1.636	-3470.28
13:33:52.825	1.637	-3471.05
13:33:52.826	1.638	-3475.62
13:33:52.827	1.639	-3483.25
13:33:52.828	1.64	-3486.31
13:33:52.829	1.641	-3484.02
13:33:52.830	1.642	-3472.57
13:33:52.831	1.643	-3486.31
13:33:52.832	1.644	-3503.09
13:33:52.833	1.645	-3499.28
13:33:52.834	1.646	-3503.09
13:33:52.835	1.647	-3512.25
13:33:52.836	1.648	-3519.11
13:33:52.837	1.649	-3517.59
13:33:52.838	1.65	-3513.77
13:33:52.839	1.651	-3514.53
13:33:52.840	1.652	-3513.77
13:33:52.841	1.653	-3490.12
13:33:52.842	1.654	-3482.49
13:33:52.843	1.655	-3485.54
13:33:52.844	1.656	-3520.64
13:33:52.845	1.657	-3554.97
13:33:52.846	1.658	-3552.68
13:33:52.847	1.659	-3547.34
13:33:52.848	1.66	-3551.92
13:33:52.849	1.661	-3570.23
13:33:52.850	1.662	-3583.96
13:33:52.851	1.663	-3570.23
13:33:52.852	1.664	-3551.16
13:33:52.853	1.665	-3545.81
13:33:52.854	1.666	-3562.6
13:33:52.855	1.667	-3574.81
13:33:52.856	1.668	-3590.83
13:33:52.857	1.669	-3596.17
13:33:52.858	1.67	-3597.7
13:33:52.859	1.671	-3615.24
13:33:52.860	1.672	-3619.06
13:33:52.861	1.673	-3616.01
13:33:52.862	1.674	-3633.55
13:33:52.863	1.675	-3635.08
13:33:52.864	1.676	-3638.9
13:33:52.865	1.677	-3660.26
13:33:52.866	1.678	-3680.09
13:33:52.867	1.679	-3694.59
13:33:52.868	1.68	-3700.7
13:33:52.869	1.681	-3693.83
13:33:52.870	1.682	-3698.41
13:33:52.871	1.683	-3711.38
13:33:52.872	1.684	-3730.45
13:33:52.873	1.685	-3730.45
13:33:52.874	1.686	-3722.82
13:33:52.875	1.687	-3721.29
13:33:52.876	1.688	-3736.55
13:33:52.877	1.689	-3759.44
13:33:52.878	1.69	-3759.44
13:33:52.879	1.691	-3767.07
13:33:52.880	1.692	-3754.86
13:33:52.881	1.693	-3747.23
13:33:52.882	1.694	-3775.46
13:33:52.883	1.695	-3788.43
13:33:52.884	1.696	-3779.28
13:33:52.885	1.697	-3790.72
13:33:52.886	1.698	-3786.14
13:33:52.887	1.699	-3759.44
13:33:52.888	1.7	-3778.51
13:33:52.889	1.701	-3812.85
13:33:52.890	1.702	-3822.77
13:33:52.891	1.703	-3832.69
13:33:52.892	1.704	-3822
13:33:52.893	1.705	-3820.48
13:33:52.894	1.706	-3841.84
13:33:52.895	1.707	-3860.15
13:33:52.896	1.708	-3857.1
13:33:52.897	1.709	-3841.08
13:33:52.898	1.71	-3850.23
13:33:52.899	1.711	-3856.34
13:33:52.900	1.712	-3845.66
13:33:52.901	1.713	-3832.69
13:33:52.902	1.714	-3832.69
13:33:52.903	1.715	-3838.03
13:33:52.904	1.716	-3865.49
13:33:52.905	1.717	-3872.36
13:33:52.906	1.718	-3867.02
13:33:52.907	1.719	-3846.42
13:33:52.908	1.72	-3838.03
13:33:52.909	1.721	-3838.79
13:33:52.910	1.722	-3844.89
13:33:52.911	1.723	-3848.71
13:33:52.912	1.724	-3837.26
13:33:52.913	1.725	-3851
13:33:52.914	1.726	-3874.65
13:33:52.915	1.727	-3884.57
13:33:52.916	1.728	-3876.17
13:33:52.917	1.729	-3861.68
13:33:52.918	1.73	-3869.31
13:33:52.919	1.731	-3873.88
13:33:52.920	1.732	-3871.6
13:33:52.921	1.733	-3866.25
13:33:52.922	1.734	-3858.63
13:33:52.923	1.735	-3860.91
13:33:52.924	1.736	-3854.81
13:33:52.925	1.737	-3858.63
13:33:52.926	1.738	-3851.76
13:33:52.927	1.739	-3844.89
13:33:52.928	1.74	-3870.83
13:33:52.929	1.741	-3889.91
13:33:52.930	1.742	-3902.11
13:33:52.931	1.743	-3895.25
13:33:52.932	1.744	-3872.36
13:33:52.933	1.745	-3870.07
13:33:52.934	1.746	-3881.51
13:33:52.935	1.747	-3880.75
13:33:52.936	1.748	-3883.8
13:33:52.937	1.749	-3862.44
13:33:52.938	1.75	-3872.36
13:33:52.939	1.751	-3876.94
13:33:52.940	1.752	-3871.6
13:33:52.941	1.753	-3874.65
13:33:52.942	1.754	-3867.78
13:33:52.943	1.755	-3873.12
13:33:52.944	1.756	-3869.31
13:33:52.945	1.757	-3870.83
13:33:52.946	1.758	-3874.65
13:33:52.947	1.759	-3884.57
13:33:52.948	1.76	-3889.91
13:33:52.949	1.761	-3879.22
13:33:52.950	1.762	-3868.54
13:33:52.951	1.763	-3870.07
13:33:52.952	1.764	-3884.57
13:33:52.953	1.765	-3882.28
13:33:52.954	1.766	-3867.02
13:33:52.955	1.767	-3890.67
13:33:52.956	1.768	-3910.51
13:33:52.957	1.769	-3907.45
13:33:52.958	1.77	-3899.82
13:33:52.959	1.771	-3876.94
13:33:52.960	1.772	-3874.65
13:33:52.961	1.773	-3879.22
13:33:52.962	1.774	-3884.57
13:33:52.963	1.775	-3888.38
13:33:52.964	1.776	-3879.22
13:33:52.965	1.777	-3886.09
13:33:52.966	1.778	-3881.51
13:33:52.967	1.779	-3882.28
13:33:52.968	1.78	-3897.54
13:33:52.969	1.781	-3909.74
13:33:52.970	1.782	-3911.27
13:33:52.971	1.783	-3897.54
13:33:52.972	1.784	-3890.67
13:33:52.973	1.785	-3894.48
13:33:52.974	1.786	-3909.74
13:33:52.975	1.787	-3909.74
13:33:52.976	1.788	-3904.4
13:33:52.977	1.789	-3908.98
13:33:52.978	1.79	-3901.35
13:33:52.979	1.791	-3899.82
13:33:52.980	1.792	-3885.33
13:33:52.981	1.793	-3866.25
13:33:52.982	1.794	-3880.75
13:33:52.983	1.795	-3898.3
13:33:52.984	1.796	-3899.82
13:33:52.985	1.797	-3896.77
13:33:52.986	1.798	-3855.57
13:33:52.987	1.799	-3841.08
13:33:52.988	1.8	-3873.88
13:33:52.989	1.801	-3876.17
13:33:52.990	1.802	-3870.83
13:33:52.991	1.803	-3881.51
13:33:52.992	1.804	-3883.8
13:33:52.993	1.805	-3872.36
13:33:52.994	1.806	-3857.1
13:33:52.995	1.807	-3854.05
13:33:52.996	1.808	-3869.31
13:33:52.997	1.809	-3882.28
13:33:52.998	1.81	-3880.75
13:33:52.999	1.811	-3887.62
13:33:53.000	1.812	-3896.01
13:33:53.001	1.813	-3886.85
13:33:53.002	1.814	-3887.62
13:33:53.003	1.815	-3862.44
13:33:53.004	1.816	-3858.63
13:33:53.005	1.817	-3855.57
13:33:53.006	1.818	-3887.62
13:33:53.007	1.819	-3918.9
13:33:53.008	1.82	-3901.35
13:33:53.009	1.821	-3881.51
13:33:53.010	1.822	-3879.99
13:33:53.011	1.823	-3876.94
13:33:53.012	1.824	-3879.99
13:33:53.013	1.825	-3879.99
13:33:53.014	1.826	-3876.17
13:33:53.015	1.827	-3884.57
13:33:53.016	1.828	-3880.75
13:33:53.017	1.829	-3876.17
13:33:53.018	1.83	-3885.33
13:33:53.019	1.831	-3886.09
13:33:53.020	1.832	-3876.94
13:33:53.021	1.833	-3888.38
13:33:53.022	1.834	-3890.67
13:33:53.023	1.835	-3877.7
13:33:53.024	1.836	-3873.88
13:33:53.025	1.837	-3889.14
13:33:53.026	1.838	-3904.4
13:33:53.027	1.839	-3892.96
13:33:53.028	1.84	-3869.31
13:33:53.029	1.841	-3866.25
13:33:53.030	1.842	-3873.12
13:33:53.031	1.843	-3882.28
13:33:53.032	1.844	-3892.96
13:33:53.033	1.845	-3898.3
13:33:53.034	1.846	-3905.93
13:33:53.035	1.847	-3912.03
13:33:53.036	1.848	-3919.66
13:33:53.037	1.849	-3909.74
13:33:53.038	1.85	-3889.14
13:33:53.039	1.851	-3863.2
13:33:53.040	1.852	-3851.76
13:33:53.041	1.853	-3863.2
13:33:53.042	1.854	-3876.17
13:33:53.043	1.855	-3879.22
13:33:53.044	1.856	-3871.6
13:33:53.045	1.857	-3878.46
13:33:53.046	1.858	-3888.38
13:33:53.047	1.859	-3901.35
13:33:53.048	1.86	-3905.93
13:33:53.049	1.861	-3927.29
13:33:53.050	1.862	-3941.02
13:33:53.051	1.863	-3929.58
13:33:53.052	1.864	-3902.11
13:33:53.053	1.865	-3896.77
13:33:53.054	1.866	-3906.69
13:33:53.055	1.867	-3906.69
13:33:53.056	1.868	-3898.3
13:33:53.057	1.869	-3896.77
13:33:53.058	1.87	-3886.09
13:33:53.059	1.871	-3873.88
13:33:53.060	1.872	-3879.22
13:33:53.061	1.873	-3897.54
13:33:53.062	1.874	-3908.98
13:33:53.063	1.875	-3917.37
13:33:53.064	1.876	-3918.9
13:33:53.065	1.877	-3917.37
13:33:53.066	1.878	-3898.3
13:33:53.067	1.879	-3905.93
13:33:53.068	1.88	-3910.51
13:33:53.069	1.881	-3892.96
13:33:53.070	1.882	-3871.6
13:33:53.071	1.883	-3870.07
13:33:53.072	1.884	-3902.11
13:33:53.073	1.885	-3928.05
13:33:53.074	1.886	-3927.29
13:33:53.075	1.887	-3929.58
13:33:53.076	1.888	-3924.24
13:33:53.077	1.889	-3930.34
13:33:53.078	1.89	-3912.03
13:33:53.079	1.891	-3902.11
13:33:53.080	1.892	-3902.88
13:33:53.081	1.893	-3907.45
13:33:53.082	1.894	-3912.03
13:33:53.083	1.895	-3901.35
13:33:53.084	1.896	-3904.4
13:33:53.085	1.897	-3903.64
13:33:53.086	1.898	-3899.06
13:33:53.087	1.899	-3886.85
13:33:53.088	1.9	-3882.28
13:33:53.089	1.901	-3878.46
13:33:53.090	1.902	-3867.02
13:33:53.091	1.903	-3884.57
13:33:53.092	1.904	-3899.06
13:33:53.093	1.905	-3906.69
13:33:53.094	1.906	-3912.79
13:33:53.095	1.907	-3912.03
13:33:53.096	1.908	-3903.64
13:33:53.097	1.909	-3910.51
13:33:53.098	1.91	-3944.84
13:33:53.099	1.911	-3941.79
13:33:53.100	1.912	-3921.95
13:33:53.101	1.913	-3888.38
13:33:53.102	1.914	-3880.75
13:33:53.103	1.915	-3892.19
13:33:53.104	1.916	-3894.48
13:33:53.105	1.917	-3916.61
13:33:53.106	1.918	-3933.39
13:33:53.107	1.919	-3914.32
13:33:53.108	1.92	-3886.85
13:33:53.109	1.921	-3879.22
13:33:53.110	1.922	-3886.85
13:33:53.111	1.923	-3885.33
13:33:53.112	1.924	-3886.85
13:33:53.113	1.925	-3888.38
13:33:53.114	1.926	-3899.82
13:33:53.115	1.927	-3915.08
13:33:53.116	1.928	-3923.48
13:33:53.117	1.929	-3926.53
13:33:53.118	1.93	-3931.1
13:33:53.119	1.931	-3918.9
13:33:53.120	1.932	-3906.69
13:33:53.121	1.933	-3918.9
13:33:53.122	1.934	-3915.08
13:33:53.123	1.935	-3909.74
13:33:53.124	1.936	-3908.22
13:33:53.125	1.937	-3919.66
13:33:53.126	1.938	-3934.16
13:33:53.127	1.939	-3941.79
13:33:53.128	1.94	-3942.55
13:33:53.129	1.941	-3930.34
13:33:53.130	1.942	-3929.58
13:33:53.131	1.943	-3928.05
13:33:53.132	1.944	-3924.24
13:33:53.133	1.945	-3928.82
13:33:53.134	1.946	-3936.45
13:33:53.135	1.947	-3938.74
13:33:53.136	1.948	-3937.97
13:33:53.137	1.949	-3939.5
13:33:53.138	1.95	-3946.37
13:33:53.139	1.951	-3963.91
13:33:53.140	1.952	-3953.23
13:33:53.141	1.953	-3959.34
13:33:53.142	1.954	-3959.34
13:33:53.143	1.955	-3941.02
13:33:53.144	1.956	-3913.56
13:33:53.145	1.957	-3899.06
13:33:53.146	1.958	-3907.45
13:33:53.147	1.959	-3907.45
13:33:53.148	1.96	-3916.61
13:33:53.149	1.961	-3916.61
13:33:53.150	1.962	-3933.39
13:33:53.151	1.963	-3953.99
13:33:53.152	1.964	-3957.81
13:33:53.153	1.965	-3945.6
13:33:53.154	1.966	-3934.92
13:33:53.155	1.967	-3922.71
13:33:53.156	1.968	-3912.79
13:33:53.157	1.969	-3918.13
13:33:53.158	1.97	-3929.58
13:33:53.159	1.971	-3934.92
13:33:53.160	1.972	-3934.92
13:33:53.161	1.973	-3921.95
13:33:53.162	1.974	-3931.87
13:33:53.163	1.975	-3950.18
13:33:53.164	1.976	-3943.31
13:33:53.165	1.977	-3934.92
13:33:53.166	1.978	-3929.58
13:33:53.167	1.979	-3931.1
13:33:53.168	1.98	-3931.87
13:33:53.169	1.981	-3935.68
13:33:53.170	1.982	-3942.55
13:33:53.171	1.983	-3926.53
13:33:53.172	1.984	-3912.79
13:33:53.173	1.985	-3934.92
13:33:53.174	1.986	-3938.74
13:33:53.175	1.987	-3918.13
13:33:53.176	1.988	-3913.56
13:33:53.177	1.989	-3911.27
13:33:53.178	1.99	-3919.66
13:33:53.179	1.991	-3944.08
13:33:53.180	1.992	-3947.89
13:33:53.181	1.993	-3937.21
13:33:53.182	1.994	-3920.42
13:33:53.183	1.995	-3904.4
13:33:53.184	1.996	-3905.93
13:33:53.185	1.997	-3912.03
13:33:53.186	1.998	-3920.42
13:33:53.187	1.999	-3931.87
13:33:53.188	2	-3936.45
13:33:53.189	2.001	-3946.37
13:33:53.189	2.002	-3934.92
13:33:53.191	2.003	-3904.4
13:33:53.192	2.004	-3909.74
13:33:53.193	2.005	-3915.85
13:33:53.193	2.006	-3928.82
13:33:53.195	2.007	-3947.89
13:33:53.196	2.008	-3966.2
13:33:53.197	2.009	-3961.62
13:33:53.197	2.01	-3970.02
13:33:53.199	2.011	-3976.88
13:33:53.200	2.012	-3975.36
13:33:53.201	2.013	-3947.89
13:33:53.201	2.014	-3921.95
13:33:53.203	2.015	-3931.1
13:33:53.204	2.016	-3952.47
13:33:53.205	2.017	-3955.52
13:33:53.205	2.018	-3947.13
13:33:53.207	2.019	-3955.52
13:33:53.208	2.02	-3960.1
13:33:53.209	2.021	-3950.94
13:33:53.209	2.022	-3934.16
13:33:53.211	2.023	-3953.23
13:33:53.212	2.024	-3986.04
13:33:53.213	2.025	-3976.12
13:33:53.213	2.026	-3965.44
13:33:53.215	2.027	-3959.34
13:33:53.216	2.028	-3950.18
13:33:53.217	2.029	-3957.81
13:33:53.217	2.03	-3962.39
13:33:53.219	2.031	-3963.15
13:33:53.220	2.032	-3969.25
13:33:53.221	2.033	-3947.13
13:33:53.221	2.034	-3935.68
13:33:53.223	2.035	-3961.62
13:33:53.224	2.036	-3974.59
13:33:53.225	2.037	-3967.73
13:33:53.225	2.038	-3946.37
13:33:53.227	2.039	-3929.58
13:33:53.228	2.04	-3936.45
13:33:53.229	2.041	-3941.02
13:33:53.229	2.042	-3941.79
13:33:53.231	2.043	-3941.79
13:33:53.232	2.044	-3943.31
13:33:53.233	2.045	-3932.63
13:33:53.233	2.046	-3909.74
13:33:53.235	2.047	-3912.79
13:33:53.236	2.048	-3917.37
13:33:53.237	2.049	-3920.42
13:33:53.238	2.05	-3923.48
13:33:53.239	2.051	-3924.24
13:33:53.240	2.052	-3921.95
13:33:53.241	2.053	-3926.53
13:33:53.242	2.054	-3951.71
13:33:53.243	2.055	-3961.62
13:33:53.244	2.056	-3946.37
13:33:53.245	2.057	-3932.63
13:33:53.246	2.058	-3942.55
13:33:53.247	2.059	-3955.52
13:33:53.248	2.06	-3969.25
13:33:53.249	2.061	-3970.78
13:33:53.250	2.062	-3947.89
13:33:53.251	2.063	-3943.31
13:33:53.252	2.064	-3961.62
13:33:53.253	2.065	-3962.39
13:33:53.254	2.066	-3967.73
13:33:53.255	2.067	-3952.47
13:33:53.256	2.068	-3932.63
13:33:53.257	2.069	-3926.53
13:33:53.258	2.07	-3911.27
13:33:53.259	2.071	-3908.22
13:33:53.260	2.072	-3926.53
13:33:53.261	2.073	-3940.26
13:33:53.262	2.074	-3929.58
13:33:53.263	2.075	-3923.48
13:33:53.264	2.076	-3948.65
13:33:53.265	2.077	-3971.54
13:33:53.266	2.078	-3966.96
13:33:53.267	2.079	-3936.45
13:33:53.268	2.08	-3906.69
13:33:53.269	2.081	-3910.51
13:33:53.270	2.082	-3915.08
13:33:53.271	2.083	-3902.11
13:33:53.272	2.084	-3918.13
13:33:53.273	2.085	-3950.18
13:33:53.274	2.086	-3960.1
13:33:53.275	2.087	-3949.42
13:33:53.276	2.088	-3932.63
13:33:53.277	2.089	-3928.05
13:33:53.278	2.09	-3934.92
13:33:53.279	2.091	-3940.26
13:33:53.280	2.092	-3944.08
13:33:53.281	2.093	-3922.71
13:33:53.282	2.094	-3908.22
13:33:53.283	2.095	-3910.51
13:33:53.284	2.096	-3918.13
13:33:53.285	2.097	-3901.35
13:33:53.286	2.098	-3904.4
13:33:53.287	2.099	-3912.79
13:33:53.288	2.1	-3915.85
13:33:53.289	2.101	-3904.4
13:33:53.290	2.102	-3906.69
13:33:53.291	2.103	-3918.13
13:33:53.292	2.104	-3912.79
13:33:53.293	2.105	-3915.85
13:33:53.294	2.106	-3930.34
13:33:53.295	2.107	-3928.82
13:33:53.296	2.108	-3928.82
13:33:53.297	2.109	-3938.74
13:33:53.298	2.11	-3943.31
13:33:53.299	2.111	-3937.97
13:33:53.300	2.112	-3940.26
13:33:53.301	2.113	-3947.13
13:33:53.302	2.114	-3960.86
13:33:53.303	2.115	-3944.84
13:33:53.304	2.116	-3914.32
13:33:53.305	2.117	-3907.45
13:33:53.306	2.118	-3938.74
13:33:53.307	2.119	-3970.02
13:33:53.308	2.12	-3974.59
13:33:53.309	2.121	-3966.96
13:33:53.310	2.122	-3953.99
13:33:53.311	2.123	-3960.1
13:33:53.312	2.124	-3972.31
13:33:53.313	2.125	-3979.93
13:33:53.314	2.126	-3973.83
13:33:53.315	2.127	-3968.49
13:33:53.316	2.128	-3970.78
13:33:53.317	2.129	-3966.2
13:33:53.318	2.13	-3967.73
13:33:53.319	2.131	-3977.65
13:33:53.320	2.132	-3999.77
13:33:53.321	2.133	-4012.74
13:33:53.322	2.134	-4014.27
13:33:53.323	2.135	-4008.93
13:33:53.324	2.136	-4005.11
13:33:53.325	2.137	-4010.45
13:33:53.326	2.138	-4004.35
13:33:53.327	2.139	-3997.48
13:33:53.328	2.14	-3995.96
13:33:53.329	2.141	-3986.8
13:33:53.330	2.142	-3980.7
13:33:53.331	2.143	-3985.28
13:33:53.332	2.144	-4008.93
13:33:53.333	2.145	-4035.63
13:33:53.334	2.146	-4049.36
13:33:53.335	2.147	-4052.41
13:33:53.336	2.148	-4045.55
13:33:53.337	2.149	-4022.66
13:33:53.338	2.15	-4004.35
13:33:53.339	2.151	-3991.38
13:33:53.340	2.152	-3983.75
13:33:53.341	2.153	-3987.56
13:33:53.342	2.154	-4021.9
13:33:53.343	2.155	-4025.71
13:33:53.344	2.156	-4015.03
13:33:53.345	2.157	-4018.84
13:33:53.346	2.158	-4028.76
13:33:53.347	2.159	-4031.81
13:33:53.348	2.16	-4029.53
13:33:53.349	2.161	-4004.35
13:33:53.350	2.162	-3978.41
13:33:53.351	2.163	-3976.88
13:33:53.352	2.164	-3982.22
13:33:53.353	2.165	-3992.9
13:33:53.354	2.166	-3993.67
13:33:53.355	2.167	-4011.22
13:33:53.356	2.168	-4005.87
13:33:53.357	2.169	-3985.28
13:33:53.358	2.17	-3989.09
13:33:53.359	2.171	-4003.59
13:33:53.360	2.172	-3997.48
13:33:53.361	2.173	-3998.25
13:33:53.362	2.174	-4003.59
13:33:53.363	2.175	-4022.66
13:33:53.364	2.176	-4021.9
13:33:53.365	2.177	-4028.76
13:33:53.366	2.178	-4025.71
13:33:53.367	2.179	-4004.35
13:33:53.368	2.18	-4000.53
13:33:53.369	2.181	-4011.22
13:33:53.370	2.182	-4010.45
13:33:53.371	2.183	-4020.37
13:33:53.372	2.184	-4024.95
13:33:53.373	2.185	-4023.42
13:33:53.374	2.186	-4017.32
13:33:53.375	2.187	-4024.95
13:33:53.376	2.188	-4040.21
13:33:53.377	2.189	-4017.32
13:33:53.378	2.19	-4018.08
13:33:53.379	2.191	-4035.63
13:33:53.380	2.192	-4049.36
13:33:53.381	2.193	-4051.65
13:33:53.382	2.194	-4043.26
13:33:53.383	2.195	-4022.66
13:33:53.384	2.196	-4025.71
13:33:53.385	2.197	-4038.68
13:33:53.386	2.198	-4037.92
13:33:53.387	2.199	-4041.73
13:33:53.388	2.2	-4045.55
13:33:53.389	2.201	-4040.97
13:33:53.390	2.202	-4031.81
13:33:53.391	2.203	-4014.27
13:33:53.392	2.204	-3998.25
13:33:53.393	2.205	-3994.43
13:33:53.394	2.206	-3999.01
13:33:53.395	2.207	-4015.03
13:33:53.396	2.208	-4006.64
13:33:53.397	2.209	-3962.39
13:33:53.398	2.21	-3901.35
13:33:53.399	2.211	-3875.41
13:33:53.400	2.212	-3872.36
13:33:53.401	2.213	-3870.83
13:33:53.402	2.214	-3834.97
13:33:53.403	2.215	-3784.62
13:33:53.404	2.216	-3750.29
13:33:53.405	2.217	-3709.85
13:33:53.406	2.218	-3678.57
13:33:53.407	2.219	-3675.52
13:33:53.408	2.22	-3661.78
13:33:53.409	2.221	-3632.03
13:33:53.410	2.222	-3614.48
13:33:53.411	2.223	-3610.67
13:33:53.412	2.224	-3613.72
13:33:53.413	2.225	-3619.06
13:33:53.414	2.226	-3633.55
13:33:53.415	2.227	-3632.03
13:33:53.416	2.228	-3607.61
13:33:53.417	2.229	-3587.02	mark
13:33:53.418	2.23	-3590.83
13:33:53.419	2.231	-3616.01
13:33:53.420	2.232	-3656.44
13:33:53.421	2.233	-3700.7
13:33:53.422	2.234	-3769.36
13:33:53.423	2.235	-3806.74
13:33:53.424	2.236	-3841.84
13:33:53.425	2.237	-3903.64
13:33:53.426	2.238	-3931.1
13:33:53.427	2.239	-3929.58
13:33:53.428	2.24	-3927.29
13:33:53.429	2.241	-3963.91
13:33:53.430	2.242	-4028
13:33:53.431	2.243	-4050.12
13:33:53.432	2.244	-4077.59
13:33:53.433	2.245	-4120.32
13:33:53.434	2.246	-4131.76
13:33:53.435	2.247	-4162.28
13:33:53.436	2.248	-4221.79
13:33:53.437	2.249	-4274.43
13:33:53.438	2.25	-4298.85
13:33:53.439	2.251	-4276.72
13:33:53.440	2.252	-4246.2
13:33:53.441	2.253	-4256.12
13:33:53.442	2.254	-4261.46
13:33:53.443	2.255	-4244.68
13:33:53.444	2.256	-4225.6
13:33:53.445	2.257	-4207.29
13:33:53.446	2.258	-4182.12
13:33:53.447	2.259	-4159.99
13:33:53.448	2.26	-4167.62
13:33:53.449	2.261	-4147.02
13:33:53.450	2.262	-4127.18
13:33:53.451	2.263	-4129.47
13:33:53.452	2.264	-4134.05
13:33:53.453	2.265	-4133.29
13:33:53.454	2.266	-4134.81
13:33:53.455	2.267	-4116.5
13:33:53.456	2.268	-4095.9
13:33:53.457	2.269	-4065.39
13:33:53.458	2.27	-4070.73
13:33:53.459	2.271	-4089.8
13:33:53.460	2.272	-4082.93
13:33:53.461	2.273	-4077.59
13:33:53.462	2.274	-4069.2
13:33:53.463	2.275	-4062.33
13:33:53.464	2.276	-4064.62
13:33:53.465	2.277	-4075.3
13:33:53.466	2.278	-4070.73
13:33:53.467	2.279	-4058.52
13:33:53.468	2.28	-4073.02
13:33:53.469	2.281	-4083.7
13:33:53.470	2.282	-4072.25
13:33:53.471	2.283	-4078.36
13:33:53.472	2.284	-4090.56
13:33:53.473	2.285	-4066.91
13:33:53.474	2.286	-4050.12
13:33:53.475	2.287	-4040.21
13:33:53.476	2.288	-4024.19
13:33:53.477	2.289	-4034.87
13:33:53.478	2.29	-4028.76
13:33:53.479	2.291	-4021.9
13:33:53.480	2.292	-4035.63
13:33:53.481	2.293	-4038.68
13:33:53.482	2.294	-4034.87
13:33:53.483	2.295	-4048.6
13:33:53.484	2.296	-4053.18
13:33:53.485	2.297	-4028.76
13:33:53.486	2.298	-4015.79
13:33:53.487	2.299	-4015.79
13:33:53.488	2.3	-4034.1
13:33:53.489	2.301	-4054.7
13:33:53.490	2.302	-4070.73
13:33:53.491	2.303	-4089.04
13:33:53.492	2.304	-4082.93
13:33:53.493	2.305	-4034.87
13:33:53.494	2.306	-3993.67
13:33:53.495	2.307	-3980.7
13:33:53.496	2.308	-3983.75
13:33:53.497	2.309	-3989.85
13:33:53.498	2.31	-3997.48
13:33:53.499	2.311	-4002.06
13:33:53.500	2.312	-4004.35
13:33:53.501	2.313	-4015.79
13:33:53.502	2.314	-4031.81
13:33:53.503	2.315	-4025.71
13:33:53.504	2.316	-4017.32
13:33:53.505	2.317	-4018.08
13:33:53.506	2.318	-4018.84
13:33:53.507	2.319	-4023.42
13:33:53.508	2.32	-4022.66
13:33:53.509	2.321	-4017.32
13:33:53.510	2.322	-4006.64
13:33:53.511	2.323	-3995.96
13:33:53.512	2.324	-3999.77
13:33:53.513	2.325	-3997.48
13:33:53.514	2.326	-3987.56
13:33:53.515	2.327	-3983.75
13:33:53.516	2.328	-3986.04
13:33:53.517	2.329	-4015.79
13:33:53.518	2.33	-4040.21
13:33:53.519	2.331	-4044.02
13:33:53.520	2.332	-4028
13:33:53.521	2.333	-3999.77
13:33:53.522	2.334	-3983.75
13:33:53.523	2.335	-3977.65
13:33:53.524	2.336	-3987.56
13:33:53.525	2.337	-3987.56
13:33:53.526	2.338	-3980.7
13:33:53.527	2.339	-3978.41
13:33:53.528	2.34	-3979.93
13:33:53.529	2.341	-3978.41
13:33:53.530	2.342	-3989.85
13:33:53.531	2.343	-3989.09
13:33:53.532	2.344	-3979.93
13:33:53.533	2.345	-3972.31
13:33:53.534	2.346	-3981.46
13:33:53.535	2.347	-3993.67
13:33:53.536	2.348	-3982.99
13:33:53.537	2.349	-3968.49
13:33:53.538	2.35	-3979.17
13:33:53.539	2.351	-3999.77
13:33:53.540	2.352	-3992.14
13:33:53.541	2.353	-3993.67
13:33:53.542	2.354	-4007.4
13:33:53.543	2.355	-3994.43
13:33:53.544	2.356	-3976.88
13:33:53.545	2.357	-3981.46
13:33:53.546	2.358	-3967.73
13:33:53.547	2.359	-3982.22
13:33:53.548	2.36	-3997.48
13:33:53.549	2.361	-4001.3
13:33:53.550	2.362	-3996.72
13:33:53.551	2.363	-3990.62
13:33:53.552	2.364	-3974.59
13:33:53.553	2.365	-3956.28
13:33:53.554	2.366	-3963.15
13:33:53.555	2.367	-3968.49
13:33:53.556	2.368	-3964.68
13:33:53.557	2.369	-3958.57
13:33:53.558	2.37	-3957.05
13:33:53.559	2.371	-3961.62
13:33:53.560	2.372	-3954.76
13:33:53.561	2.373	-3957.81
13:33:53.562	2.374	-3956.28
13:33:53.563	2.375	-3947.89
13:33:53.564	2.376	-3935.68
13:33:53.565	2.377	-3950.18
13:33:53.566	2.378	-3953.23
13:33:53.567	2.379	-3924.24
13:33:53.568	2.38	-3925.76
13:33:53.569	2.381	-3941.02
13:33:53.570	2.382	-3944.84
13:33:53.571	2.383	-3944.84
13:33:53.572	2.384	-3921.95
13:33:53.573	2.385	-3915.08
13:33:53.574	2.386	-3924.24
13:33:53.575	2.387	-3921.19
13:33:53.576	2.388	-3917.37
13:33:53.577	2.389	-3915.85
13:33:53.578	2.39	-3910.51
13:33:53.579	2.391	-3915.85
13:33:53.580	2.392	-3942.55
13:33:53.581	2.393	-3941.02
13:33:53.582	2.394	-3919.66
13:33:53.583	2.395	-3877.7
13:33:53.584	2.396	-3848.71
13:33:53.585	2.397	-3845.66
13:33:53.586	2.398	-3849.47
13:33:53.587	2.399	-3857.1
13:33:53.588	2.4	-3869.31
13:33:53.589	2.401	-3886.85
13:33:53.590	2.402	-3892.19
13:33:53.591	2.403	-3871.6
13:33:53.592	2.404	-3832.69
13:33:53.593	2.405	-3822
13:33:53.594	2.406	-3842.6
13:33:53.595	2.407	-3867.78
13:33:53.596	2.408	-3870.07
13:33:53.597	2.409	-3857.1
13:33:53.598	2.41	-3812.85
13:33:53.599	2.411	-3776.99
13:33:53.600	2.412	-3766.31
13:33:53.601	2.413	-3772.41
13:33:53.602	2.414	-3785.38
13:33:53.603	2.415	-3805.22
13:33:53.604	2.416	-3802.93
13:33:53.605	2.417	-3787.67
13:33:53.606	2.418	-3757.92
13:33:53.607	2.419	-3744.18
13:33:53.608	2.42	-3752.57
13:33:53.609	2.421	-3727.4
13:33:53.610	2.422	-3722.06
13:33:53.611	2.423	-3758.68
13:33:53.612	2.424	-3776.99
13:33:53.613	2.425	-3761.73
13:33:53.614	2.426	-3741.13
13:33:53.615	2.427	-3739.6
13:33:53.616	2.428	-3748
13:33:53.617	2.429	-3754.1
13:33:53.618	2.43	-3758.68
13:33:53.619	2.431	-3751.81
13:33:53.620	2.432	-3744.18
13:33:53.621	2.433	-3738.08
13:33:53.622	2.434	-3731.21
13:33:53.623	2.435	-3724.35
13:33:53.624	2.436	-3722.82
13:33:53.625	2.437	-3730.45
13:33:53.626	2.438	-3731.98
13:33:53.627	2.439	-3724.35
13:33:53.628	2.44	-3696.88
13:33:53.629	2.441	-3680.86
13:33:53.630	2.442	-3682.38
13:33:53.631	2.443	-3712.14
13:33:53.632	2.444	-3733.5
13:33:53.633	2.445	-3731.21
13:33:53.634	2.446	-3721.29
13:33:53.635	2.447	-3711.38
13:33:53.636	2.448	-3715.19
13:33:53.637	2.449	-3721.29
13:33:53.638	2.45	-3713.67
13:33:53.639	2.451	-3727.4
13:33:53.640	2.452	-3727.4
13:33:53.641	2.453	-3696.12
13:33:53.642	2.454	-3684.67
13:33:53.643	2.455	-3695.35
13:33:53.644	2.456	-3706.8
13:33:53.645	2.457	-3715.95
13:33:53.646	2.458	-3713.67
13:33:53.647	2.459	-3722.06
13:33:53.648	2.46	-3746.47
13:33:53.649	2.461	-3745.71
13:33:53.650	2.462	-3739.6
13:33:53.651	2.463	-3752.57
13:33:53.652	2.464	-3751.05
13:33:53.653	2.465	-3762.49
13:33:53.654	2.466	-3793.77
13:33:53.655	2.467	-3785.38
13:33:53.656	2.468	-3761.73
13:33:53.657	2.469	-3760.97
13:33:53.658	2.47	-3779.28
13:33:53.659	2.471	-3802.17
13:33:53.660	2.472	-3809.8
13:33:53.661	2.473	-3805.98
13:33:53.662	2.474	-3804.45
13:33:53.663	2.475	-3809.8
13:33:53.664	2.476	-3825.06
13:33:53.665	2.477	-3841.08
13:33:53.666	2.478	-3852.52
13:33:53.667	2.479	-3875.41
13:33:53.668	2.48	-3892.96
13:33:53.669	2.481	-3879.22
13:33:53.670	2.482	-3915.85
13:33:53.671	2.483	-3952.47
13:33:53.672	2.484	-3949.42
13:33:53.673	2.485	-3907.45
13:33:53.674	2.486	-3863.2
13:33:53.675	2.487	-3860.91
13:33:53.676	2.488	-3865.49
13:33:53.677	2.489	-3877.7
13:33:53.678	2.49	-3883.8
13:33:53.679	2.491	-3904.4
13:33:53.680	2.492	-3922.71
13:33:53.681	2.493	-3924.24
13:33:53.682	2.494	-3951.71
13:33:53.683	2.495	-3979.93
13:33:53.684	2.496	-3977.65
13:33:53.685	2.497	-3961.62
13:33:53.686	2.498	-3952.47
13:33:53.687	2.499	-3972.31
13:33:53.688	2.5	-3975.36
13:33:53.689	2.501	-3973.07
13:33:53.690	2.502	-3970.78
13:33:53.691	2.503	-3973.07
13:33:53.692	2.504	-3983.75
13:33:53.693	2.505	-4008.93
13:33:53.694	2.506	-4034.1
13:33:53.695	2.507	-4031.05
13:33:53.696	2.508	-4034.1
13:33:53.697	2.509	-4040.97
13:33:53.698	2.51	-4047.84
13:33:53.699	2.511	-4040.97
13:33:53.700	2.512	-4026.47
13:33:53.701	2.513	-4020.37
13:33:53.702	2.514	-4022.66
13:33:53.703	2.515	-4034.1
13:33:53.704	2.516	-4027.24
13:33:53.705	2.517	-4023.42
13:33:53.706	2.518	-4047.84
13:33:53.707	2.519	-4066.15
13:33:53.708	2.52	-4064.62
13:33:53.709	2.521	-4061.57
13:33:53.710	2.522	-4056.99
13:33:53.711	2.523	-4056.99
13:33:53.712	2.524	-4063.86
13:33:53.713	2.525	-4057.75
13:33:53.714	2.526	-4046.31
13:33:53.715	2.527	-4056.99
13:33:53.716	2.528	-4069.2
13:33:53.717	2.529	-4088.27
13:33:53.718	2.53	-4111.93
13:33:53.719	2.531	-4126.42
13:33:53.720	2.532	-4105.06
13:33:53.721	2.533	-4082.93
13:33:53.722	2.534	-4088.27
13:33:53.723	2.535	-4111.16
13:33:53.724	2.536	-4105.82
13:33:53.725	2.537	-4076.07
13:33:53.726	2.538	-4069.2
13:33:53.727	2.539	-4074.54
13:33:53.728	2.54	-4083.7
13:33:53.729	2.541	-4093.61
13:33:53.730	2.542	-4098.96
13:33:53.731	2.543	-4098.19
13:33:53.732	2.544	-4103.53
13:33:53.733	2.545	-4114.21
13:33:53.734	2.546	-4107.35
13:33:53.735	2.547	-4072.25
13:33:53.736	2.548	-4050.89
13:33:53.737	2.549	-4066.91
13:33:53.738	2.55	-4073.78
13:33:53.739	2.551	-4069.2
13:33:53.740	2.552	-4074.54
13:33:53.741	2.553	-4082.17
13:33:53.742	2.554	-4089.8
13:33:53.743	2.555	-4111.93
13:33:53.744	2.556	-4127.18
13:33:53.745	2.557	-4114.98
13:33:53.746	2.558	-4103.53
13:33:53.747	2.559	-4090.56
13:33:53.748	2.56	-4095.14
13:33:53.749	2.561	-4120.32
13:33:53.750	2.562	-4118.79
13:33:53.751	2.563	-4087.51
13:33:53.752	2.564	-4095.9
13:33:53.753	2.565	-4112.69
13:33:53.754	2.566	-4098.19
13:33:53.755	2.567	-4070.73
13:33:53.756	2.568	-4081.41
13:33:53.757	2.569	-4093.61
13:33:53.758	2.57	-4078.36
13:33:53.759	2.571	-4055.47
13:33:53.760	2.572	-4047.07
13:33:53.761	2.573	-4056.99
13:33:53.762	2.574	-4067.67
13:33:53.763	2.575	-4072.25
13:33:53.764	2.576	-4079.88
13:33:53.765	2.577	-4084.46
13:33:53.766	2.578	-4096.67
13:33:53.767	2.579	-4095.14
13:33:53.768	2.58	-4085.22
13:33:53.769	2.581	-4077.59
13:33:53.770	2.582	-4063.86
13:33:53.771	2.583	-4073.78
13:33:53.772	2.584	-4087.51
13:33:53.773	2.585	-4090.56
13:33:53.774	2.586	-4078.36
13:33:53.775	2.587	-4078.36
13:33:53.776	2.588	-4093.61
13:33:53.777	2.589	-4084.46
13:33:53.778	2.59	-4076.83
13:33:53.779	2.591	-4090.56
13:33:53.780	2.592	-4102.77
13:33:53.781	2.593	-4098.19
13:33:53.782	2.594	-4105.82
13:33:53.783	2.595	-4111.16
13:33:53.784	2.596	-4117.27
13:33:53.785	2.597	-4115.74
13:33:53.786	2.598	-4120.32
13:33:53.787	2.599	-4101.24
13:33:53.788	2.6	-4066.91
13:33:53.789	2.601	-4061.57
13:33:53.790	2.602	-4066.15
13:33:53.791	2.603	-4093.61
13:33:53.792	2.604	-4127.18
13:33:53.793	2.605	-4132.52
13:33:53.794	2.606	-4100.48
13:33:53.795	2.607	-4083.7
13:33:53.796	2.608	-4081.41
13:33:53.797	2.609	-4093.61
13:33:53.798	2.61	-4092.09
13:33:53.799	2.611	-4084.46
13:33:53.800	2.612	-4089.8
13:33:53.801	2.613	-4095.9
13:33:53.802	2.614	-4121.84
13:33:53.803	2.615	-4138.63
13:33:53.804	2.616	-4134.05
13:33:53.805	2.617	-4109.64
13:33:53.806	2.618	-4085.22
13:33:53.807	2.619	-4069.96
13:33:53.808	2.62	-4076.83
13:33:53.809	2.621	-4083.7
13:33:53.810	2.622	-4095.9
13:33:53.811	2.623	-4098.96
13:33:53.812	2.624	-4097.43
13:33:53.813	2.625	-4098.96
13:33:53.814	2.626	-4102.77
13:33:53.815	2.627	-4110.4
13:33:53.816	2.628	-4124.13
13:33:53.817	2.629	-4124.13
13:33:53.818	2.63	-4095.14
13:33:53.819	2.631	-4079.12
13:33:53.820	2.632	-4077.59
13:33:53.821	2.633	-4075.3
13:33:53.822	2.634	-4083.7
13:33:53.823	2.635	-4108.11
13:33:53.824	2.636	-4098.19
13:33:53.825	2.637	-4085.22
13:33:53.826	2.638	-4076.07
13:33:53.827	2.639	-4069.96
13:33:53.828	2.64	-4073.02
13:33:53.829	2.641	-4085.99
13:33:53.830	2.642	-4097.43
13:33:53.831	2.643	-4102.77
13:33:53.832	2.644	-4102.01
13:33:53.833	2.645	-4103.53
13:33:53.834	2.646	-4087.51
13:33:53.835	2.647	-4073.02
13:33:53.836	2.648	-4098.96
13:33:53.837	2.649	-4103.53
13:33:53.838	2.65	-4083.7
13:33:53.839	2.651	-4081.41
13:33:53.840	2.652	-4090.56
13:33:53.841	2.653	-4085.99
13:33:53.842	2.654	-4071.49
13:33:53.843	2.655	-4082.17
13:33:53.844	2.656	-4093.61
13:33:53.845	2.657	-4081.41
13:33:53.846	2.658	-4089.8
13:33:53.847	2.659	-4096.67
13:33:53.848	2.66	-4079.12
13:33:53.849	2.661	-4082.17
13:33:53.850	2.662	-4088.27
13:33:53.851	2.663	-4097.43
13:33:53.852	2.664	-4113.45
13:33:53.853	2.665	-4122.61
13:33:53.854	2.666	-4130.24
13:33:53.855	2.667	-4128.71
13:33:53.856	2.668	-4094.38
13:33:53.857	2.669	-4063.86
13:33:53.858	2.67	-4076.07
13:33:53.859	2.671	-4092.09
13:33:53.860	2.672	-4096.67
13:33:53.861	2.673	-4103.53
13:33:53.862	2.674	-4098.96
13:33:53.863	2.675	-4078.36
13:33:53.864	2.676	-4059.28
13:33:53.865	2.677	-4076.07
13:33:53.866	2.678	-4090.56
13:33:53.867	2.679	-4108.87
13:33:53.868	2.68	-4102.01
13:33:53.869	2.681	-4106.58
13:33:53.870	2.682	-4126.42
13:33:53.871	2.683	-4134.81
13:33:53.872	2.684	-4134.81
13:33:53.873	2.685	-4115.74
13:33:53.874	2.686	-4113.45
13:33:53.875	2.687	-4121.08
13:33:53.876	2.688	-4128.71
13:33:53.877	2.689	-4134.05
13:33:53.878	2.69	-4126.42
13:33:53.879	2.691	-4118.79
13:33:53.880	2.692	-4099.72
13:33:53.881	2.693	-4099.72
13:33:53.882	2.694	-4117.27
13:33:53.883	2.695	-4118.03
13:33:53.884	2.696	-4110.4
13:33:53.885	2.697	-4113.45
13:33:53.886	2.698	-4108.11
13:33:53.887	2.699	-4108.87
13:33:53.888	2.7	-4109.64
13:33:53.889	2.701	-4112.69
13:33:53.890	2.702	-4114.98
13:33:53.891	2.703	-4128.71
13:33:53.892	2.704	-4127.95
13:33:53.893	2.705	-4114.98
13:33:53.894	2.706	-4092.85
13:33:53.895	2.707	-4093.61
13:33:53.896	2.708	-4103.53
13:33:53.897	2.709	-4111.16
13:33:53.898	2.71	-4122.61
13:33:53.899	2.711	-4116.5
13:33:53.900	2.712	-4113.45
13:33:53.901	2.713	-4114.21
13:33:53.902	2.714	-4111.16
13:33:53.903	2.715	-4123.37
13:33:53.904	2.716	-4143.21
13:33:53.905	2.717	-4141.68
13:33:53.906	2.718	-4120.32
13:33:53.907	2.719	-4111.16
13:33:53.908	2.72	-4118.03
13:33:53.909	2.721	-4116.5
13:33:53.910	2.722	-4108.11
13:33:53.911	2.723	-4104.3
13:33:53.912	2.724	-4091.33
13:33:53.913	2.725	-4091.33
13:33:53.914	2.726	-4118.03
13:33:53.915	2.727	-4127.18
13:33:53.916	2.728	-4129.47
13:33:53.917	2.729	-4129.47
13:33:53.918	2.73	-4129.47
13:33:53.919	2.731	-4122.61
13:33:53.920	2.732	-4108.87
13:33:53.921	2.733	-4113.45
13:33:53.922	2.734	-4127.95
13:33:53.923	2.735	-4132.52
13:33:53.924	2.736	-4124.13
13:33:53.925	2.737	-4102.77
13:33:53.926	2.738	-4111.93
13:33:53.927	2.739	-4127.95
13:33:53.928	2.74	-4127.18
13:33:53.929	2.741	-4127.95
13:33:53.930	2.742	-4136.34
13:33:53.931	2.743	-4151.6
13:33:53.932	2.744	-4169.91
13:33:53.933	2.745	-4161.52
13:33:53.934	2.746	-4124.9
13:33:53.935	2.747	-4125.66
13:33:53.936	2.748	-4145.49
13:33:53.937	2.749	-4145.49
13:33:53.938	2.75	-4124.9
13:33:53.939	2.751	-4104.3
13:33:53.940	2.752	-4098.19
13:33:53.941	2.753	-4091.33
13:33:53.942	2.754	-4096.67
13:33:53.943	2.755	-4106.58
13:33:53.944	2.756	-4116.5
13:33:53.945	2.757	-4124.13
13:33:53.946	2.758	-4126.42
13:33:53.947	2.759	-4118.03
13:33:53.948	2.76	-4112.69
13:33:53.949	2.761	-4121.84
13:33:53.950	2.762	-4143.97
13:33:53.951	2.763	-4144.73
13:33:53.952	2.764	-4145.49
13:33:53.953	2.765	-4150.07
13:33:53.954	2.766	-4143.21
13:33:53.955	2.767	-4143.97
13:33:53.956	2.768	-4137.87
13:33:53.957	2.769	-4135.58
13:33:53.958	2.77	-4131
13:33:53.959	2.771	-4128.71
13:33:53.960	2.772	-4137.1
13:33:53.961	2.773	-4140.92
13:33:53.962	2.774	-4118.79
13:33:53.963	2.775	-4100.48
13:33:53.964	2.776	-4115.74
13:33:53.965	2.777	-4127.95
13:33:53.966	2.778	-4160.75
13:33:53.967	2.779	-4159.99
13:33:53.968	2.78	-4126.42
13:33:53.969	2.781	-4114.98
13:33:53.970	2.782	-4131
13:33:53.971	2.783	-4135.58
13:33:53.972	2.784	-4143.97
13:33:53.973	2.785	-4155.41
13:33:53.974	2.786	-4146.26
13:33:53.975	2.787	-4127.18
13:33:53.976	2.788	-4119.55
13:33:53.977	2.789	-4117.27
13:33:53.978	2.79	-4127.95
13:33:53.979	2.791	-4127.18
13:33:53.980	2.792	-4134.05
13:33:53.981	2.793	-4147.78
13:33:53.982	2.794	-4163.04
13:33:53.983	2.795	-4153.89
13:33:53.984	2.796	-4151.6
13:33:53.985	2.797	-4161.52
13:33:53.986	2.798	-4159.23
13:33:53.987	2.799	-4153.89
13:33:53.988	2.8	-4147.78
13:33:53.989	2.801	-4142.44
13:33:53.990	2.802	-4146.26
13:33:53.991	2.803	-4139.39
13:33:53.992	2.804	-4158.46
13:33:53.993	2.805	-4173.72
13:33:53.994	2.806	-4158.46
13:33:53.995	2.807	-4133.29
13:33:53.996	2.808	-4124.13
13:33:53.997	2.809	-4143.97
13:33:53.998	2.81	-4159.23
13:33:53.999	2.811	-4147.02
13:33:54.000	2.812	-4144.73
13:33:54.001	2.813	-4140.15
13:33:54.002	2.814	-4146.26
13:33:54.003	2.815	-4147.78
13:33:54.004	2.816	-4135.58
13:33:54.005	2.817	-4141.68
13:33:54.006	2.818	-4155.41
13:33:54.007	2.819	-4139.39
13:33:54.008	2.82	-4116.5
13:33:54.009	2.821	-4129.47
13:33:54.010	2.822	-4139.39
13:33:54.011	2.823	-4147.78
13:33:54.012	2.824	-4150.07
13:33:54.013	2.825	-4146.26
13:33:54.014	2.826	-4150.83
13:33:54.015	2.827	-4151.6
13:33:54.016	2.828	-4156.94
13:33:54.017	2.829	-4156.18
13:33:54.018	2.83	-4151.6
13:33:54.019	2.831	-4154.65
13:33:54.020	2.832	-4165.33
13:33:54.021	2.833	-4167.62
13:33:54.022	2.834	-4139.39
13:33:54.023	2.835	-4136.34
13:33:54.024	2.836	-4155.41
13:33:54.025	2.837	-4163.81
13:33:54.026	2.838	-4137.1
13:33:54.027	2.839	-4118.79
13:33:54.028	2.84	-4121.84
13:33:54.029	2.841	-4122.61
13:33:54.030	2.842	-4127.95
13:33:54.031	2.843	-4164.57
13:33:54.032	2.844	-4179.83
13:33:54.033	2.845	-4158.46
13:33:54.034	2.846	-4152.36
13:33:54.035	2.847	-4153.89
13:33:54.036	2.848	-4145.49
13:33:54.037	2.849	-4145.49
13:33:54.038	2.85	-4166.09
13:33:54.039	2.851	-4176.01
13:33:54.040	2.852	-4166.09
13:33:54.041	2.853	-4159.23
13:33:54.042	2.854	-4156.18
13:33:54.043	2.855	-4132.52
13:33:54.044	2.856	-4118.79
13:33:54.045	2.857	-4110.4
13:33:54.046	2.858	-4093.61
13:33:54.047	2.859	-4113.45
13:33:54.048	2.86	-4133.29
13:33:54.049	2.861	-4125.66
13:33:54.050	2.862	-4114.98
13:33:54.051	2.863	-4107.35
13:33:54.052	2.864	-4092.09
13:33:54.053	2.865	-4102.01
13:33:54.054	2.866	-4123.37
13:33:54.055	2.867	-4136.34
13:33:54.056	2.868	-4127.95
13:33:54.057	2.869	-4098.19
13:33:54.058	2.87	-4074.54
13:33:54.059	2.871	-4079.88
13:33:54.060	2.872	-4104.3
13:33:54.061	2.873	-4101.24
13:33:54.062	2.874	-4103.53
13:33:54.063	2.875	-4109.64
13:33:54.064	2.876	-4121.84
13:33:54.065	2.877	-4125.66
13:33:54.066	2.878	-4127.18
13:33:54.067	2.879	-4125.66
13:33:54.068	2.88	-4124.9
13:33:54.069	2.881	-4141.68
13:33:54.070	2.882	-4154.65
13:33:54.071	2.883	-4158.46
13:33:54.072	2.884	-4133.29
13:33:54.073	2.885	-4106.58
13:33:54.074	2.886	-4102.77
13:33:54.075	2.887	-4095.14
13:33:54.076	2.888	-4109.64
13:33:54.077	2.889	-4122.61
13:33:54.078	2.89	-4119.55
13:33:54.079	2.891	-4125.66
13:33:54.080	2.892	-4109.64
13:33:54.081	2.893	-4090.56
13:33:54.082	2.894	-4091.33
13:33:54.083	2.895	-4102.77
13:33:54.084	2.896	-4110.4
13:33:54.085	2.897	-4121.84
13:33:54.086	2.898	-4117.27
13:33:54.087	2.899	-4102.77
13:33:54.088	2.9	-4095.14
13:33:54.089	2.901	-4082.93
13:33:54.090	2.902	-4085.99
13:33:54.091	2.903	-4089.04
13:33:54.092	2.904	-4080.64
13:33:54.093	2.905	-4079.88
13:33:54.094	2.906	-4083.7
13:33:54.095	2.907	-4092.85
13:33:54.096	2.908	-4105.82
13:33:54.097	2.909	-4102.01
13:33:54.098	2.91	-4093.61
13:33:54.099	2.911	-4105.06
13:33:54.100	2.912	-4101.24
13:33:54.101	2.913	-4065.39
13:33:54.102	2.914	-4070.73
13:33:54.103	2.915	-4080.64
13:33:54.104	2.916	-4101.24
13:33:54.105	2.917	-4105.06
13:33:54.106	2.918	-4095.9
13:33:54.107	2.919	-4083.7
13:33:54.108	2.92	-4080.64
13:33:54.109	2.921	-4079.88
13:33:54.110	2.922	-4078.36
13:33:54.111	2.923	-4076.07
13:33:54.112	2.924	-4069.96
13:33:54.113	2.925	-4060.81
13:33:54.114	2.926	-4058.52
13:33:54.115	2.927	-4068.44
13:33:54.116	2.928	-4083.7
13:33:54.117	2.929	-4092.85
13:33:54.118	2.93	-4100.48
13:33:54.119	2.931	-4113.45
13:33:54.120	2.932	-4121.08
13:33:54.121	2.933	-4124.13
13:33:54.122	2.934	-4124.9
13:33:54.123	2.935	-4130.24
13:33:54.124	2.936	-4137.87
13:33:54.125	2.937	-4133.29
13:33:54.126	2.938	-4124.13
13:33:54.127	2.939	-4136.34
13:33:54.128	2.94	-4147.02
13:33:54.129	2.941	-4150.07
13:33:54.130	2.942	-4139.39
13:33:54.131	2.943	-4140.15
13:33:54.132	2.944	-4152.36
13:33:54.133	2.945	-4144.73
13:33:54.134	2.946	-4139.39
13:33:54.135	2.947	-4153.89
13:33:54.136	2.948	-4163.81
13:33:54.137	2.949	-4154.65
13:33:54.138	2.95	-4131
13:33:54.139	2.951	-4126.42
13:33:54.140	2.952	-4133.29
13:33:54.141	2.953	-4131.76
13:33:54.142	2.954	-4142.44
13:33:54.143	2.955	-4151.6
13:33:54.144	2.956	-4134.81
13:33:54.145	2.957	-4116.5
13:33:54.146	2.958	-4120.32
13:33:54.147	2.959	-4140.15
13:33:54.148	2.96	-4141.68
13:33:54.149	2.961	-4135.58
13:33:54.150	2.962	-4131
13:33:54.151	2.963	-4135.58
13:33:54.152	2.964	-4140.92
13:33:54.153	2.965	-4139.39
13:33:54.154	2.966	-4134.81
13:33:54.155	2.967	-4142.44
13:33:54.156	2.968	-4159.99
13:33:54.157	2.969	-4162.28
13:33:54.158	2.97	-4169.91
13:33:54.159	2.971	-4160.75
13:33:54.160	2.972	-4166.09
13:33:54.161	2.973	-4164.57
13:33:54.162	2.974	-4155.41
13:33:54.163	2.975	-4163.04
13:33:54.164	2.976	-4166.09
13:33:54.165	2.977	-4156.94
13:33:54.166	2.978	-4147.78
13:33:54.167	2.979	-4153.89
13:33:54.168	2.98	-4155.41
13:33:54.169	2.981	-4129.47
13:33:54.170	2.982	-4124.9
13:33:54.171	2.983	-4150.07
13:33:54.172	2.984	-4166.86
13:33:54.173	2.985	-4164.57
13:33:54.174	2.986	-4159.23
13:33:54.175	2.987	-4144.73
13:33:54.176	2.988	-4132.52
13:33:54.177	2.989	-4133.29
13:33:54.178	2.99	-4128.71
13:33:54.179	2.991	-4150.07
13:33:54.180	2.992	-4168.38
13:33:54.181	2.993	-4163.04
13:33:54.182	2.994	-4168.38
13:33:54.183	2.995	-4166.86
13:33:54.184	2.996	-4162.28
13:33:54.185	2.997	-4154.65
13:33:54.186	2.998	-4155.41
13:33:54.187	2.999	-4164.57
13:33:54.188	3	-4161.52
13:33:54.189	3.001	-4153.12
13:33:54.190	3.002	-4140.92
13:33:54.191	3.003	-4140.92
13:33:54.192	3.004	-4156.94
13:33:54.193	3.005	-4153.89
13:33:54.194	3.006	-4144.73
13:33:54.195	3.007	-4139.39
13:33:54.196	3.008	-4142.44
13:33:54.197	3.009	-4165.33
13:33:54.198	3.01	-4181.35
13:33:54.199	3.011	-4163.04
13:33:54.200	3.012	-4169.15
13:33:54.201	3.013	-4157.7
13:33:54.202	3.014	-4140.15
13:33:54.203	3.015	-4138.63
13:33:54.204	3.016	-4131.76
13:33:54.205	3.017	-4141.68
13:33:54.206	3.018	-4151.6
13:33:54.207	3.019	-4143.21
13:33:54.208	3.02	-4139.39
13:33:54.209	3.021	-4137.87
13:33:54.210	3.022	-4140.15
13:33:54.211	3.023	-4153.12
13:33:54.212	3.024	-4167.62
13:33:54.213	3.025	-4179.06
13:33:54.214	3.026	-4163.04
13:33:54.215	3.027	-4129.47
13:33:54.216	3.028	-4112.69
13:33:54.217	3.029	-4099.72
13:33:54.218	3.03	-4075.3
13:33:54.219	3.031	-4082.17
13:33:54.220	3.032	-4077.59
13:33:54.221	3.033	-4054.7
13:33:54.222	3.034	-4028.76
13:33:54.223	3.035	-3937.21
13:33:54.224	3.036	-3863.97
13:33:54.225	3.037	-3836.5
13:33:54.226	3.038	-3800.64
13:33:54.227	3.039	-3764.02
13:33:54.228	3.04	-3754.86
13:33:54.229	3.041	-3746.47
13:33:54.230	3.042	-3738.84
13:33:54.231	3.043	-3751.81
13:33:54.232	3.044	-3756.39
13:33:54.233	3.045	-3754.1
13:33:54.234	3.046	-3728.16
13:33:54.235	3.047	-3696.12
13:33:54.236	3.048	-3681.62
13:33:54.237	3.049	-3689.25
13:33:54.238	3.05	-3677.8	mark
13:33:54.239	3.051	-3677.8
13:33:54.240	3.052	-3695.35
13:33:54.241	3.053	-3718.24
13:33:54.242	3.054	-3770.89
13:33:54.243	3.055	-3832.69
13:33:54.244	3.056	-3851
13:33:54.245	3.057	-3891.43
13:33:54.246	3.058	-3950.18
13:33:54.247	3.059	-3970.78
13:33:54.248	3.06	-4010.45
13:33:54.249	3.061	-4080.64
13:33:54.250	3.062	-4108.11
13:33:54.251	3.063	-4134.05
13:33:54.252	3.064	-4164.57
13:33:54.253	3.065	-4195.09
13:33:54.254	3.066	-4226.37
13:33:54.255	3.067	-4232.47
13:33:54.256	3.068	-4238.58
13:33:54.257	3.069	-4257.65
13:33:54.258	3.07	-4298.85
13:33:54.259	3.071	-4354.54
13:33:54.260	3.072	-4377.43
13:33:54.261	3.073	-4389.64
13:33:54.262	3.074	-4401.08
13:33:54.263	3.075	-4388.11
13:33:54.264	3.076	-4369.04
13:33:54.265	3.077	-4365.22
13:33:54.266	3.078	-4334.71
13:33:54.267	3.079	-4298.08
13:33:54.268	3.08	-4260.7
13:33:54.269	3.081	-4226.37
13:33:54.270	3.082	-4208.82
13:33:54.271	3.083	-4195.09
13:33:54.272	3.084	-4198.14
13:33:54.273	3.085	-4204.24
13:33:54.274	3.086	-4202.72
13:33:54.275	3.087	-4200.43
13:33:54.276	3.088	-4203.48
13:33:54.277	3.089	-4205.01
13:33:54.278	3.09	-4192.8
13:33:54.279	3.091	-4166.86
13:33:54.280	3.092	-4153.89
13:33:54.281	3.093	-4156.18
13:33:54.282	3.094	-4164.57
13:33:54.283	3.095	-4158.46
13:33:54.284	3.096	-4153.89
13:33:54.285	3.097	-4153.12
13:33:54.286	3.098	-4150.83
13:33:54.287	3.099	-4138.63
13:33:54.288	3.1	-4123.37
13:33:54.289	3.101	-4129.47
13:33:54.290	3.102	-4140.92
13:33:54.291	3.103	-4126.42
13:33:54.292	3.104	-4102.01
13:33:54.293	3.105	-4114.98
13:33:54.294	3.106	-4127.18
13:33:54.295	3.107	-4129.47
13:33:54.296	3.108	-4118.79
13:33:54.297	3.109	-4100.48
13:33:54.298	3.11	-4081.41
13:33:54.299	3.111	-4074.54
13:33:54.300	3.112	-4082.17
13:33:54.301	3.113	-4107.35
13:33:54.302	3.114	-4109.64
13:33:54.303	3.115	-4105.82
13:33:54.304	3.116	-4118.03
13:33:54.305	3.117	-4119.55
13:33:54.306	3.118	-4108.11
13:33:54.307	3.119	-4088.27
13:33:54.308	3.12	-4077.59
13:33:54.309	3.121	-4084.46
13:33:54.310	3.122	-4109.64
13:33:54.311	3.123	-4118.03
13:33:54.312	3.124	-4105.06
13:33:54.313	3.125	-4090.56
13:33:54.314	3.126	-4088.27
13:33:54.315	3.127	-4076.07
13:33:54.316	3.128	-4072.25
13:33:54.317	3.129	-4077.59
13:33:54.318	3.13	-4095.14
13:33:54.319	3.131	-4095.9
13:33:54.320	3.132	-4076.83
13:33:54.321	3.133	-4064.62
13:33:54.322	3.134	-4049.36
13:33:54.323	3.135	-4039.44
13:33:54.324	3.136	-4049.36
13:33:54.325	3.137	-4050.12
13:33:54.326	3.138	-4051.65
13:33:54.327	3.139	-4061.57
13:33:54.328	3.14	-4064.62
13:33:54.329	3.141	-4064.62
13:33:54.330	3.142	-4052.41
13:33:54.331	3.143	-4050.89
13:33:54.332	3.144	-4046.31
13:33:54.333	3.145	-4043.26
13:33:54.334	3.146	-4051.65
13:33:54.335	3.147	-4062.33
13:33:54.336	3.148	-4082.93
13:33:54.337	3.149	-4100.48
13:33:54.338	3.15	-4086.75
13:33:54.339	3.151	-4067.67
13:33:54.340	3.152	-4040.97
13:33:54.341	3.153	-4024.95
13:33:54.342	3.154	-4021.9
13:33:54.343	3.155	-4035.63
13:33:54.344	3.156	-4064.62
13:33:54.345	3.157	-4071.49
13:33:54.346	3.158	-4060.81
13:33:54.347	3.159	-4050.12
13:33:54.348	3.16	-4034.1
13:33:54.349	3.161	-4042.5
13:33:54.350	3.162	-4050.89
13:33:54.351	3.163	-4043.26
13:33:54.352	3.164	-4043.26
13:33:54.353	3.165	-4040.97
13:33:54.354	3.166	-4038.68
13:33:54.355	3.167	-4038.68
13:33:54.356	3.168	-4019.61
13:33:54.357	3.169	-4003.59
13:33:54.358	3.17	-4024.95
13:33:54.359	3.171	-4048.6
13:33:54.360	3.172	-4048.6
13:33:54.361	3.173	-4050.89
13:33:54.362	3.174	-4052.41
13:33:54.363	3.175	-4050.12
13:33:54.364	3.176	-4044.78
13:33:54.365	3.177	-4037.16
13:33:54.366	3.178	-4025.71
13:33:54.367	3.179	-4024.19
13:33:54.368	3.18	-4025.71
13:33:54.369	3.181	-4027.24
13:33:54.370	3.182	-4019.61
13:33:54.371	3.183	-4008.16
13:33:54.372	3.184	-4015.03
13:33:54.373	3.185	-4028
13:33:54.374	3.186	-4028.76
13:33:54.375	3.187	-4024.19
13:33:54.376	3.188	-4020.37
13:33:54.377	3.189	-4019.61
13:33:54.378	3.19	-4024.19
13:33:54.379	3.191	-4010.45
13:33:54.380	3.192	-3999.01
13:33:54.381	3.193	-4008.16
13:33:54.382	3.194	-4005.11
13:33:54.383	3.195	-3992.14
13:33:54.384	3.196	-3995.96
13:33:54.385	3.197	-3986.8
13:33:54.386	3.198	-3988.33
13:33:54.387	3.199	-3982.22
13:33:54.388	3.2	-3946.37
13:33:54.389	3.201	-3941.02
13:33:54.390	3.202	-3950.94
13:33:54.391	3.203	-3967.73
13:33:54.392	3.204	-3981.46
13:33:54.393	3.205	-3963.15
13:33:54.394	3.206	-3950.18
13:33:54.395	3.207	-3947.13
13:33:54.396	3.208	-3945.6
13:33:54.397	3.209	-3941.79
13:33:54.398	3.21	-3944.84
13:33:54.399	3.211	-3947.89
13:33:54.400	3.212	-3960.1
13:33:54.401	3.213	-3958.57
13:33:54.402	3.214	-3957.81
13:33:54.403	3.215	-3948.65
13:33:54.404	3.216	-3943.31
13:33:54.405	3.217	-3960.1
13:33:54.406	3.218	-3954.76
13:33:54.407	3.219	-3944.08
13:33:54.408	3.22	-3938.74
13:33:54.409	3.221	-3928.82
13:33:54.410	3.222	-3915.85
13:33:54.411	3.223	-3902.88
13:33:54.412	3.224	-3886.09
13:33:54.413	3.225	-3880.75
13:33:54.414	3.226	-3875.41
13:33:54.415	3.227	-3878.46
13:33:54.416	3.228	-3887.62
13:33:54.417	3.229	-3866.25
13:33:54.418	3.23	-3863.97
13:33:54.419	3.231	-3867.02
13:33:54.420	3.232	-3856.34
13:33:54.421	3.233	-3840.31
13:33:54.422	3.234	-3838.03
13:33:54.423	3.235	-3849.47
13:33:54.424	3.236	-3847.94
13:33:54.425	3.237	-3833.45
13:33:54.426	3.238	-3839.55
13:33:54.427	3.239	-3851.76
13:33:54.428	3.24	-3846.42
13:33:54.429	3.241	-3834.97
13:33:54.430	3.242	-3821.24
13:33:54.431	3.243	-3809.03
13:33:54.432	3.244	-3801.4
13:33:54.433	3.245	-3796.06
13:33:54.434	3.246	-3818.19
13:33:54.435	3.247	-3842.6
13:33:54.436	3.248	-3831.16
13:33:54.437	3.249	-3790.72
13:33:54.438	3.25	-3773.94
13:33:54.439	3.251	-3773.94
13:33:54.440	3.252	-3783.09
13:33:54.441	3.253	-3804.45
13:33:54.442	3.254	-3824.29
13:33:54.443	3.255	-3800.64
13:33:54.444	3.256	-3762.49
13:33:54.445	3.257	-3749.52
13:33:54.446	3.258	-3757.92
13:33:54.447	3.259	-3776.99
13:33:54.448	3.26	-3770.89
13:33:54.449	3.261	-3761.73
13:33:54.450	3.262	-3753.34
13:33:54.451	3.263	-3751.81
13:33:54.452	3.264	-3746.47
13:33:54.453	3.265	-3741.89
13:33:54.454	3.266	-3754.1
13:33:54.455	3.267	-3750.29
13:33:54.456	3.268	-3731.98
13:33:54.457	3.269	-3703.75
13:33:54.458	3.27	-3702.98
13:33:54.459	3.271	-3733.5
13:33:54.460	3.272	-3744.18
13:33:54.461	3.273	-3761.73
13:33:54.462	3.274	-3775.46
13:33:54.463	3.275	-3754.1
13:33:54.464	3.276	-3759.44
13:33:54.465	3.277	-3773.94
13:33:54.466	3.278	-3775.46
13:33:54.467	3.279	-3773.17
13:33:54.468	3.28	-3796.83
13:33:54.469	3.281	-3818.19
13:33:54.470	3.282	-3800.64
13:33:54.471	3.283	-3773.94
13:33:54.472	3.284	-3766.31
13:33:54.473	3.285	-3786.91
13:33:54.474	3.286	-3813.61
13:33:54.475	3.287	-3810.56
13:33:54.476	3.288	-3787.67
13:33:54.477	3.289	-3779.28
13:33:54.478	3.29	-3780.8
13:33:54.479	3.291	-3789.2
13:33:54.480	3.292	-3809.8
13:33:54.481	3.293	-3828.87
13:33:54.482	3.294	-3857.86
13:33:54.483	3.295	-3879.99
13:33:54.484	3.296	-3870.83
13:33:54.485	3.297	-3865.49
13:33:54.486	3.298	-3874.65
13:33:54.487	3.299	-3880.75
13:33:54.488	3.3	-3875.41
13:33:54.489	3.301	-3873.12
13:33:54.490	3.302	-3877.7
13:33:54.491	3.303	-3891.43
13:33:54.492	3.304	-3908.98
13:33:54.493	3.305	-3912.79
13:33:54.494	3.306	-3912.79
13:33:54.495	3.307	-3934.92
13:33:54.496	3.308	-3932.63
13:33:54.497	3.309	-3931.1
13:33:54.498	3.31	-3953.99
13:33:54.499	3.311	-3960.86
13:33:54.500	3.312	-3962.39
13:33:54.501	3.313	-3985.28
13:33:54.502	3.314	-4000.53
13:33:54.503	3.315	-4002.82
13:33:54.504	3.316	-4000.53
13:33:54.505	3.317	-4015.03
13:33:54.506	3.318	-4036.39
13:33:54.507	3.319	-4040.97
13:33:54.508	3.32	-4030.29
13:33:54.509	3.321	-4044.78
13:33:54.510	3.322	-4046.31
13:33:54.511	3.323	-4039.44
13:33:54.512	3.324	-4046.31
13:33:54.513	3.325	-4060.81
13:33:54.514	3.326	-4082.17
13:33:54.515	3.327	-4076.83
13:33:54.516	3.328	-4050.12
13:33:54.517	3.329	-4041.73
13:33:54.518	3.33	-4059.28
13:33:54.519	3.331	-4075.3
13:33:54.520	3.332	-4079.88
13:33:54.521	3.333	-4085.22
13:33:54.522	3.334	-4095.9
13:33:54.523	3.335	-4096.67
13:33:54.524	3.336	-4111.93
13:33:54.525	3.337	-4137.87
13:33:54.526	3.338	-4121.08
13:33:54.527	3.339	-4101.24
13:33:54.528	3.34	-4109.64
13:33:54.529	3.341	-4111.93
13:33:54.530	3.342	-4123.37
13:33:54.531	3.343	-4139.39
13:33:54.532	3.344	-4141.68
13:33:54.533	3.345	-4132.52
13:33:54.534	3.346	-4112.69
13:33:54.535	3.347	-4117.27
13:33:54.536	3.348	-4145.49
13:33:54.537	3.349	-4167.62
13:33:54.538	3.35	-4169.91
13:33:54.539	3.351	-4137.87
13:33:54.540	3.352	-4137.1
13:33:54.541	3.353	-4137.1
13:33:54.542	3.354	-4144.73
13:33:54.543	3.355	-4139.39
13:33:54.544	3.356	-4138.63
13:33:54.545	3.357	-4138.63
13:33:54.546	3.358	-4139.39
13:33:54.547	3.359	-4146.26
13:33:54.548	3.36	-4156.94
13:33:54.549	3.361	-4153.89
13:33:54.550	3.362	-4124.9
13:33:54.551	3.363	-4127.95
13:33:54.552	3.364	-4147.78
13:33:54.553	3.365	-4152.36
13:33:54.554	3.366	-4157.7
13:33:54.555	3.367	-4161.52
13:33:54.556	3.368	-4155.41
13:33:54.557	3.369	-4134.05
13:33:54.558	3.37	-4125.66
13:33:54.559	3.371	-4127.95
13:33:54.560	3.372	-4140.15
13:33:54.561	3.373	-4128.71
13:33:54.562	3.374	-4132.52
13:33:54.563	3.375	-4123.37
13:33:54.564	3.376	-4122.61
13:33:54.565	3.377	-4140.92
13:33:54.566	3.378	-4137.87
13:33:54.567	3.379	-4133.29
13:33:54.568	3.38	-4141.68
13:33:54.569	3.381	-4136.34
13:33:54.570	3.382	-4131
13:33:54.571	3.383	-4150.07
13:33:54.572	3.384	-4166.86
13:33:54.573	3.385	-4152.36
13:33:54.574	3.386	-4140.92
13:33:54.575	3.387	-4148.55
13:33:54.576	3.388	-4148.55
13:33:54.577	3.389	-4150.07
13:33:54.578	3.39	-4149.31
13:33:54.579	3.391	-4143.97
13:33:54.580	3.392	-4161.52
13:33:54.581	3.393	-4176.01
13:33:54.582	3.394	-4181.35
13:33:54.583	3.395	-4169.15
13:33:54.584	3.396	-4160.75
13:33:54.585	3.397	-4168.38
13:33:54.586	3.398	-4195.09
13:33:54.587	3.399	-4194.32
13:33:54.588	3.4	-4176.01
13:33:54.589	3.401	-4162.28
13:33:54.590	3.402	-4153.12
13:33:54.591	3.403	-4171.43
13:33:54.592	3.404	-4204.24
13:33:54.593	3.405	-4214.16
13:33:54.594	3.406	-4168.38
13:33:54.595	3.407	-4111.16
13:33:54.596	3.408	-4135.58
13:33:54.597	3.409	-4161.52
13:33:54.598	3.41	-4172.96
13:33:54.599	3.411	-4175.25
13:33:54.600	3.412	-4169.15
13:33:54.601	3.413	-4168.38
13:33:54.602	3.414	-4162.28
13:33:54.603	3.415	-4163.04
13:33:54.604	3.416	-4153.89
13:33:54.605	3.417	-4148.55
13:33:54.606	3.418	-4163.04
13:33:54.607	3.419	-4163.81
13:33:54.608	3.42	-4172.2
13:33:54.609	3.421	-4169.91
13:33:54.610	3.422	-4157.7
13:33:54.611	3.423	-4154.65
13:33:54.612	3.424	-4158.46
13:33:54.613	3.425	-4168.38
13:33:54.614	3.426	-4172.2
13:33:54.615	3.427	-4182.12
13:33:54.616	3.428	-4191.27
13:33:54.617	3.429	-4170.67
13:33:54.618	3.43	-4154.65
13:33:54.619	3.431	-4163.04
13:33:54.620	3.432	-4170.67
13:33:54.621	3.433	-4176.77
13:33:54.622	3.434	-4182.12
13:33:54.623	3.435	-4172.96
13:33:54.624	3.436	-4167.62
13:33:54.625	3.437	-4156.18
13:33:54.626	3.438	-4154.65
13:33:54.627	3.439	-4159.23
13:33:54.628	3.44	-4143.97
13:33:54.629	3.441	-4138.63
13:33:54.630	3.442	-4149.31
13:33:54.631	3.443	-4175.25
13:33:54.632	3.444	-4182.88
13:33:54.633	3.445	-4179.06
13:33:54.634	3.446	-4198.14
13:33:54.635	3.447	-4181.35
13:33:54.636	3.448	-4171.43
13:33:54.637	3.449	-4169.91
13:33:54.638	3.45	-4163.04
13:33:54.639	3.451	-4173.72
13:33:54.640	3.452	-4179.06
13:33:54.641	3.453	-4171.43
13:33:54.642	3.454	-4169.15
13:33:54.643	3.455	-4159.23
13:33:54.644	3.456	-4163.04
13:33:54.645	3.457	-4168.38
13:33:54.646	3.458	-4178.3
13:33:54.647	3.459	-4182.12
13:33:54.648	3.46	-4179.83
13:33:54.649	3.461	-4192.8
13:33:54.650	3.462	-4184.4
13:33:54.651	3.463	-4170.67
13:33:54.652	3.464	-4163.04
13:33:54.653	3.465	-4167.62
13:33:54.654	3.466	-4169.91
13:33:54.655	3.467	-4170.67
13:33:54.656	3.468	-4163.04
13:33:54.657	3.469	-4152.36
13:33:54.658	3.47	-4152.36
13:33:54.659	3.471	-4159.99
13:33:54.660	3.472	-4161.52
13:33:54.661	3.473	-4169.91
13:33:54.662	3.474	-4164.57
13:33:54.663	3.475	-4153.89
13:33:54.664	3.476	-4163.04
13:33:54.665	3.477	-4193.56
13:33:54.666	3.478	-4198.9
13:33:54.667	3.479	-4188.98
13:33:54.668	3.48	-4170.67
13:33:54.669	3.481	-4163.04
13:33:54.670	3.482	-4191.27
13:33:54.671	3.483	-4203.48
13:33:54.672	3.484	-4185.93
13:33:54.673	3.485	-4192.04
13:33:54.674	3.486	-4188.98
13:33:54.675	3.487	-4188.98
13:33:54.676	3.488	-4175.25
13:33:54.677	3.489	-4168.38
13:33:54.678	3.49	-4181.35
13:33:54.679	3.491	-4175.25
13:33:54.680	3.492	-4162.28
13:33:54.681	3.493	-4158.46
13:33:54.682	3.494	-4175.25
13:33:54.683	3.495	-4185.17
13:33:54.684	3.496	-4178.3
13:33:54.685	3.497	-4190.51
13:33:54.686	3.498	-4213.4
13:33:54.687	3.499	-4214.92
13:33:54.688	3.5	-4200.43
13:33:54.689	3.501	-4180.59
13:33:54.690	3.502	-4180.59
13:33:54.691	3.503	-4198.14
13:33:54.692	3.504	-4221.03
13:33:54.693	3.505	-4233.23
13:33:54.694	3.506	-4217.21
13:33:54.695	3.507	-4198.9
13:33:54.696	3.508	-4169.15
13:33:54.697	3.509	-4164.57
13:33:54.698	3.51	-4179.06
13:33:54.699	3.511	-4192.8
13:33:54.700	3.512	-4192.8
13:33:54.701	3.513	-4188.22
13:33:54.702	3.514	-4188.98
13:33:54.703	3.515	-4202.72
13:33:54.704	3.516	-4207.29
13:33:54.705	3.517	-4191.27
13:33:54.706	3.518	-4178.3
13:33:54.707	3.519	-4183.64
13:33:54.708	3.52	-4188.98
13:33:54.709	3.521	-4205.01
13:33:54.710	3.522	-4209.58
13:33:54.711	3.523	-4201.19
13:33:54.712	3.524	-4182.12
13:33:54.713	3.525	-4167.62
13:33:54.714	3.526	-4167.62
13:33:54.715	3.527	-4180.59
13:33:54.716	3.528	-4189.75
13:33:54.717	3.529	-4194.32
13:33:54.718	3.53	-4200.43
13:33:54.719	3.531	-4201.95
13:33:54.720	3.532	-4198.14
13:33:54.721	3.533	-4204.24
13:33:54.722	3.534	-4207.29
13:33:54.723	3.535	-4180.59
13:33:54.724	3.536	-4173.72
13:33:54.725	3.537	-4219.5
13:33:54.726	3.538	-4252.31
13:33:54.727	3.539	-4239.34
13:33:54.728	3.54	-4214.92
13:33:54.729	3.541	-4198.14
13:33:54.730	3.542	-4188.22
13:33:54.731	3.543	-4189.75
13:33:54.732	3.544	-4189.75
13:33:54.733	3.545	-4215.69
13:33:54.734	3.546	-4237.05
13:33:54.735	3.547	-4243.15
13:33:54.736	3.548	-4225.6
13:33:54.737	3.549	-4202.72
13:33:54.738	3.55	-4223.32
13:33:54.739	3.551	-4237.81
13:33:54.740	3.552	-4230.95
13:33:54.741	3.553	-4226.37
13:33:54.742	3.554	-4208.82
13:33:54.743	3.555	-4203.48
13:33:54.744	3.556	-4201.95
13:33:54.745	3.557	-4221.03
13:33:54.746	3.558	-4224.08
13:33:54.747	3.559	-4211.87
13:33:54.748	3.56	-4209.58
13:33:54.749	3.561	-4231.71
13:33:54.750	3.562	-4239.34
13:33:54.751	3.563	-4240.1
13:33:54.752	3.564	-4232.47
13:33:54.753	3.565	-4210.35
13:33:54.754	3.566	-4206.53
13:33:54.755	3.567	-4218.74
13:33:54.756	3.568	-4217.21
13:33:54.757	3.569	-4217.21
13:33:54.758	3.57	-4218.74
13:33:54.759	3.571	-4214.92
13:33:54.760	3.572	-4214.92
13:33:54.761	3.573	-4231.71
13:33:54.762	3.574	-4243.92
13:33:54.763	3.575	-4243.15
13:33:54.764	3.576	-4238.58
13:33:54.765	3.577	-4227.13
13:33:54.766	3.578	-4222.55
13:33:54.767	3.579	-4235.52
13:33:54.768	3.58	-4247.73
13:33:54.769	3.581	-4254.6
13:33:54.770	3.582	-4255.36
13:33:54.771	3.583	-4237.05
13:33:54.772	3.584	-4244.68
13:33:54.773	3.585	-4243.15
13:33:54.774	3.586	-4225.6
13:33:54.775	3.587	-4234
13:33:54.776	3.588	-4246.2
13:33:54.777	3.589	-4238.58
13:33:54.778	3.59	-4235.52
13:33:54.779	3.591	-4250.02
13:33:54.780	3.592	-4269.09
13:33:54.781	3.593	-4266.04
13:33:54.782	3.594	-4259.17
13:33:54.783	3.595	-4258.41
13:33:54.784	3.596	-4228.66
13:33:54.785	3.597	-4221.79
13:33:54.786	3.598	-4242.39
13:33:54.787	3.599	-4258.41
13:33:54.788	3.6	-4252.31
13:33:54.789	3.601	-4246.97
13:33:54.790	3.602	-4249.26
13:33:54.791	3.603	-4245.44
13:33:54.792	3.604	-4252.31
13:33:54.793	3.605	-4266.04
13:33:54.794	3.606	-4262.99
13:33:54.795	3.607	-4269.86
13:33:54.796	3.608	-4282.06
13:33:54.797	3.609	-4290.46
13:33:54.798	3.61	-4266.04
13:33:54.799	3.611	-4253.07
13:33:54.800	3.612	-4247.73
13:33:54.801	3.613	-4239.34
13:33:54.802	3.614	-4250.78
13:33:54.803	3.615	-4267.57
13:33:54.804	3.616	-4283.59
13:33:54.805	3.617	-4299.61
13:33:54.806	3.618	-4308.77
13:33:54.807	3.619	-4294.27
13:33:54.808	3.62	-4267.57
13:33:54.809	3.621	-4238.58
13:33:54.810	3.622	-4237.05
13:33:54.811	3.623	-4256.89
13:33:54.812	3.624	-4271.38
13:33:54.813	3.625	-4262.99
13:33:54.814	3.626	-4286.64
13:33:54.815	3.627	-4311.82
13:33:54.816	3.628	-4295.03
13:33:54.817	3.629	-4261.46
13:33:54.818	3.63	-4253.07
13:33:54.819	3.631	-4263.75
13:33:54.820	3.632	-4287.4
13:33:54.821	3.633	-4285.11
13:33:54.822	3.634	-4282.06
13:33:54.823	3.635	-4274.43
13:33:54.824	3.636	-4276.72
13:33:54.825	3.637	-4273.67
13:33:54.826	3.638	-4271.38
13:33:54.827	3.639	-4269.86
13:33:54.828	3.64	-4275.2
13:33:54.829	3.641	-4282.06
13:33:54.830	3.642	-4282.06
13:33:54.831	3.643	-4275.96
13:33:54.832	3.644	-4263.75
13:33:54.833	3.645	-4265.28
13:33:54.834	3.646	-4266.04
13:33:54.835	3.647	-4264.52
13:33:54.836	3.648	-4285.11
13:33:54.837	3.649	-4311.05
13:33:54.838	3.65	-4306.48
13:33:54.839	3.651	-4301.14
13:33:54.840	3.652	-4309.53
13:33:54.841	3.653	-4305.71
13:33:54.842	3.654	-4319.45
13:33:54.843	3.655	-4340.05
13:33:54.844	3.656	-4334.71
13:33:54.845	3.657	-4343.1
13:33:54.846	3.658	-4336.23
13:33:54.847	3.659	-4317.16
13:33:54.848	3.66	-4324.03
13:33:54.849	3.661	-4320.97
13:33:54.850	3.662	-4286.64
13:33:54.851	3.663	-4253.07
13:33:54.852	3.664	-4258.41
13:33:54.853	3.665	-4260.7
13:33:54.854	3.666	-4274.43
13:33:54.855	3.667	-4286.64
13:33:54.856	3.668	-4287.4
13:33:54.857	3.669	-4271.38
13:33:54.858	3.67	-4244.68
13:33:54.859	3.671	-4250.78
13:33:54.860	3.672	-4279.01
13:33:54.861	3.673	-4274.43
13:33:54.862	3.674	-4267.57
13:33:54.863	3.675	-4261.46
13:33:54.864	3.676	-4256.89
13:33:54.865	3.677	-4262.23
13:33:54.866	3.678	-4273.67
13:33:54.867	3.679	-4282.06
13:33:54.868	3.68	-4286.64
13:33:54.869	3.681	-4288.17
13:33:54.870	3.682	-4286.64
13:33:54.871	3.683	-4284.35
13:33:54.872	3.684	-4285.88
13:33:54.873	3.685	-4288.17
13:33:54.874	3.686	-4296.56
13:33:54.875	3.687	-4327.84
13:33:54.876	3.688	-4324.03
13:33:54.877	3.689	-4281.3
13:33:54.878	3.69	-4273.67
13:33:54.879	3.691	-4290.46
13:33:54.880	3.692	-4282.83
13:33:54.881	3.693	-4292.74
13:33:54.882	3.694	-4282.83
13:33:54.883	3.695	-4274.43
13:33:54.884	3.696	-4285.88
13:33:54.885	3.697	-4309.53
13:33:54.886	3.698	-4315.63
13:33:54.887	3.699	-4308
13:33:54.888	3.7	-4301.14
13:33:54.889	3.701	-4283.59
13:33:54.890	3.702	-4272.91
13:33:54.891	3.703	-4256.12
13:33:54.892	3.704	-4240.86
13:33:54.893	3.705	-4246.2
13:33:54.894	3.706	-4272.91
13:33:54.895	3.707	-4277.48
13:33:54.896	3.708	-4277.48
13:33:54.897	3.709	-4280.54
13:33:54.898	3.71	-4265.28
13:33:54.899	3.711	-4289.69
13:33:54.900	3.712	-4294.27
13:33:54.901	3.713	-4280.54
13:33:54.902	3.714	-4262.99
13:33:54.903	3.715	-4274.43
13:33:54.904	3.716	-4291.98
13:33:54.905	3.717	-4283.59
13:33:54.906	3.718	-4275.96
13:33:54.907	3.719	-4252.31
13:33:54.908	3.72	-4243.92
13:33:54.909	3.721	-4263.75
13:33:54.910	3.722	-4278.25
13:33:54.911	3.723	-4273.67
13:33:54.912	3.724	-4285.88
13:33:54.913	3.725	-4311.82
13:33:54.914	3.726	-4310.29
13:33:54.915	3.727	-4290.46
13:33:54.916	3.728	-4287.4
13:33:54.917	3.729	-4287.4
13:33:54.918	3.73	-4297.32
13:33:54.919	3.731	-4297.32
13:33:54.920	3.732	-4306.48
13:33:54.921	3.733	-4329.37
13:33:54.922	3.734	-4320.21
13:33:54.923	3.735	-4298.85
13:33:54.924	3.736	-4290.46
13:33:54.925	3.737	-4287.4
13:33:54.926	3.738	-4302.66
13:33:54.927	3.739	-4330.89
13:33:54.928	3.74	-4326.31
13:33:54.929	3.741	-4311.05
13:33:54.930	3.742	-4303.42
13:33:54.931	3.743	-4297.32
13:33:54.932	3.744	-4295.8
13:33:54.933	3.745	-4310.29
13:33:54.934	3.746	-4319.45
13:33:54.935	3.747	-4317.92
13:33:54.936	3.748	-4313.34
13:33:54.937	3.749	-4346.15
13:33:54.938	3.75	-4362.17
13:33:54.939	3.751	-4349.2
13:33:54.940	3.752	-4328.6
13:33:54.941	3.753	-4330.89
13:33:54.942	3.754	-4349.2
13:33:54.943	3.755	-4351.49
13:33:54.944	3.756	-4334.71
13:33:54.945	3.757	-4350.73
13:33:54.946	3.758	-4364.46
13:33:54.947	3.759	-4368.28
13:33:54.948	3.76	-4371.33
13:33:54.949	3.761	-4368.28
13:33:54.950	3.762	-4351.49
13:33:54.951	3.763	-4356.83
13:33:54.952	3.764	-4371.33
13:33:54.953	3.765	-4380.48
13:33:54.954	3.766	-4382.77
13:33:54.955	3.767	-4375.14
13:33:54.956	3.768	-4365.99
13:33:54.957	3.769	-4366.75
13:33:54.958	3.77	-4355.31
13:33:54.959	3.771	-4353.02
13:33:54.960	3.772	-4353.78
13:33:54.961	3.773	-4346.91
13:33:54.962	3.774	-4337
13:33:54.963	3.775	-4350.73
13:33:54.964	3.776	-4365.22
13:33:54.965	3.777	-4373.62
13:33:54.966	3.778	-4372.85
13:33:54.967	3.779	-4369.8
13:33:54.968	3.78	-4370.57
13:33:54.969	3.781	-4361.41
13:33:54.970	3.782	-4375.91
13:33:54.971	3.783	-4409.48
13:33:54.972	3.784	-4421.68
13:33:54.973	3.785	-4414.82
13:33:54.974	3.786	-4408.71
13:33:54.975	3.787	-4410.24
13:33:54.976	3.788	-4386.59
13:33:54.977	3.789	-4362.17
13:33:54.978	3.79	-4346.91
13:33:54.979	3.791	-4338.52
13:33:54.980	3.792	-4369.8
13:33:54.981	3.793	-4394.22
13:33:54.982	3.794	-4385.82
13:33:54.983	3.795	-4380.48
13:33:54.984	3.796	-4381.25
13:33:54.985	3.797	-4382.77
13:33:54.986	3.798	-4388.11
13:33:54.987	3.799	-4383.54
13:33:54.988	3.8	-4383.54
13:33:54.989	3.801	-4386.59
13:33:54.990	3.802	-4368.28
13:33:54.991	3.803	-4355.31
13:33:54.992	3.804	-4360.65
13:33:54.993	3.805	-4366.75
13:33:54.994	3.806	-4378.96
13:33:54.995	3.807	-4402.61
13:33:54.996	3.808	-4419.39
13:33:54.997	3.809	-4400.32
13:33:54.998	3.81	-4387.35
13:33:54.999	3.811	-4382.77
13:33:55.000	3.812	-4396.51
13:33:55.001	3.813	-4412.53
13:33:55.002	3.814	-4417.87
13:33:55.003	3.815	-4414.05
13:33:55.004	3.816	-4414.05
13:33:55.005	3.817	-4428.55
13:33:55.006	3.818	-4437.71
13:33:55.007	3.819	-4420.92
13:33:55.008	3.82	-4410.24
13:33:55.009	3.821	-4410.24
13:33:55.010	3.822	-4420.16
13:33:55.011	3.823	-4411.76
13:33:55.012	3.824	-4378.96
13:33:55.013	3.825	-4368.28
13:33:55.014	3.826	-4379.72
13:33:55.015	3.827	-4385.82
13:33:55.016	3.828	-4394.98
13:33:55.017	3.829	-4404.13
13:33:55.018	3.83	-4386.59
13:33:55.019	3.831	-4365.99
13:33:55.020	3.832	-4340.81
13:33:55.021	3.833	-4320.97
13:33:55.022	3.834	-4314.11
13:33:55.023	3.835	-4301.9
13:33:55.024	3.836	-4297.32
13:33:55.025	3.837	-4285.11
13:33:55.026	3.838	-4254.6
13:33:55.027	3.839	-4202.72
13:33:55.028	3.84	-4175.25
13:33:55.029	3.841	-4155.41
13:33:55.030	3.842	-4116.5
13:33:55.031	3.843	-4059.28
13:33:55.032	3.844	-4036.39
13:33:55.033	3.845	-4028
13:33:55.034	3.846	-3999.01
13:33:55.035	3.847	-3968.49
13:33:55.036	3.848	-3943.31
13:33:55.037	3.849	-3950.18
13:33:55.038	3.85	-3970.78
13:33:55.039	3.851	-3966.96
13:33:55.040	3.852	-3948.65
13:33:55.041	3.853	-3935.68
13:33:55.042	3.854	-3928.05
13:33:55.043	3.855	-3910.51
13:33:55.044	3.856	-3920.42	mark
13:33:55.045	3.857	-3937.21
13:33:55.046	3.858	-3976.88
13:33:55.047	3.859	-4034.1
13:33:55.048	3.86	-4085.99
13:33:55.049	3.861	-4124.13
13:33:55.050	3.862	-4157.7
13:33:55.051	3.863	-4211.87
13:33:55.052	3.864	-4272.91
13:33:55.053	3.865	-4330.89
13:33:55.054	3.866	-4387.35
13:33:55.055	3.867	-4417.87
13:33:55.056	3.868	-4431.6
13:33:55.057	3.869	-4447.62
13:33:55.058	3.87	-4486.53
13:33:55.059	3.871	-4520.1
13:33:55.060	3.872	-4520.1
13:33:55.061	3.873	-4543.75
13:33:55.062	3.874	-4588.01
13:33:55.063	3.875	-4623.87
13:33:55.064	3.876	-4657.43
13:33:55.065	3.877	-4674.22
13:33:55.066	3.878	-4681.09
13:33:55.067	3.879	-4665.06
13:33:55.068	3.88	-4648.28
13:33:55.069	3.881	-4638.36
13:33:55.070	3.882	-4623.87
13:33:55.071	3.883	-4616.24
13:33:55.072	3.884	-4603.27
13:33:55.073	3.885	-4578.09
13:33:55.074	3.886	-4552.91
13:33:55.075	3.887	-4541.47
13:33:55.076	3.888	-4520.1
13:33:55.077	3.889	-4496.45
13:33:55.078	3.89	-4488.82
13:33:55.079	3.891	-4475.09
13:33:55.080	3.892	-4470.51
13:33:55.081	3.893	-4478.14
13:33:55.082	3.894	-4497.98
13:33:55.083	3.895	-4500.27
13:33:55.084	3.896	-4481.96
13:33:55.085	3.897	-4483.48
13:33:55.086	3.898	-4489.59
13:33:55.087	3.899	-4491.87
13:33:55.088	3.9	-4474.33
13:33:55.089	3.901	-4465.17
13:33:55.090	3.902	-4449.15
13:33:55.091	3.903	-4439.99
13:33:55.092	3.904	-4443.05
13:33:55.093	3.905	-4457.54
13:33:55.094	3.906	-4454.49
13:33:55.095	3.907	-4423.21
13:33:55.096	3.908	-4423.97
13:33:55.097	3.909	-4448.39
13:33:55.098	3.91	-4451.44
13:33:55.099	3.911	-4437.71
13:33:55.100	3.912	-4436.18
13:33:55.101	3.913	-4446.86
13:33:55.102	3.914	-4443.81
13:33:55.103	3.915	-4431.6
13:33:55.104	3.916	-4427.79
13:33:55.105	3.917	-4434.65
13:33:55.106	3.918	-4438.47
13:33:55.107	3.919	-4431.6
13:33:55.108	3.92	-4445.34
13:33:55.109	3.921	-4456.02
13:33:55.110	3.922	-4449.15
13:33:55.111	3.923	-4435.42
13:33:55.112	3.924	-4436.18
13:33:55.113	3.925	-4455.25
13:33:55.114	3.926	-4468.99
13:33:55.115	3.927	-4461.36
13:33:55.116	3.928	-4456.78
13:33:55.117	3.929	-4454.49
13:33:55.118	3.93	-4445.34
13:33:55.119	3.931	-4437.71
13:33:55.120	3.932	-4432.36
13:33:55.121	3.933	-4426.26
13:33:55.122	3.934	-4433.13
13:33:55.123	3.935	-4428.55
13:33:55.124	3.936	-4414.82
13:33:55.125	3.937	-4436.94
13:33:55.126	3.938	-4433.13
13:33:55.127	3.939	-4422.45
13:33:55.128	3.94	-4447.62
13:33:55.129	3.941	-4469.75
13:33:55.130	3.942	-4460.59
13:33:55.131	3.943	-4423.97
13:33:55.132	3.944	-4410.24
13:33:55.133	3.945	-4406.42
13:33:55.134	3.946	-4405.66
13:33:55.135	3.947	-4413.29
13:33:55.136	3.948	-4417.1
13:33:55.137	3.949	-4411.76
13:33:55.138	3.95	-4394.98
13:33:55.139	3.951	-4389.64
13:33:55.140	3.952	-4397.27
13:33:55.141	3.953	-4410.24
13:33:55.142	3.954	-4412.53
13:33:55.143	3.955	-4422.45
13:33:55.144	3.956	-4432.36
13:33:55.145	3.957	-4443.05
13:33:55.146	3.958	-4442.28
13:33:55.147	3.959	-4408.71
13:33:55.148	3.96	-4393.45
13:33:55.149	3.961	-4407.19
13:33:55.150	3.962	-4421.68
13:33:55.151	3.963	-4412.53
13:33:55.152	3.964	-4404.9
13:33:55.153	3.965	-4401.08
13:33:55.154	3.966	-4414.82
13:33:55.155	3.967	-4439.23
13:33:55.156	3.968	-4423.97
13:33:55.157	3.969	-4388.88
13:33:55.158	3.97	-4375.14
13:33:55.159	3.971	-4382.77
13:33:55.160	3.972	-4382.01
13:33:55.161	3.973	-4394.98
13:33:55.162	3.974	-4407.95
13:33:55.163	3.975	-4420.92
13:33:55.164	3.976	-4433.13
13:33:55.165	3.977	-4424.73
13:33:55.166	3.978	-4401.08
13:33:55.167	3.979	-4406.42
13:33:55.168	3.98	-4412.53
13:33:55.169	3.981	-4414.05
13:33:55.170	3.982	-4417.87
13:33:55.171	3.983	-4429.31
13:33:55.172	3.984	-4437.71
13:33:55.173	3.985	-4438.47
13:33:55.174	3.986	-4435.42
13:33:55.175	3.987	-4420.16
13:33:55.176	3.988	-4417.87
13:33:55.177	3.989	-4408.71
13:33:55.178	3.99	-4394.22
13:33:55.179	3.991	-4385.82
13:33:55.180	3.992	-4389.64
13:33:55.181	3.993	-4410.24
13:33:55.182	3.994	-4437.71
13:33:55.183	3.995	-4438.47
13:33:55.184	3.996	-4418.63
13:33:55.185	3.997	-4391.93
13:33:55.186	3.998	-4375.14
13:33:55.187	3.999	-4381.25
13:33:55.188	4	-4390.4
13:33:55.189	4.001	-4398.03
13:33:55.190	4.002	-4391.16
13:33:55.191	4.003	-4378.96
13:33:55.191	4.004	-4374.38
13:33:55.193	4.005	-4374.38
13:33:55.194	4.006	-4385.06
13:33:55.194	4.007	-4388.11
13:33:55.196	4.008	-4385.82
13:33:55.197	4.009	-4382.77
13:33:55.198	4.01	-4374.38
13:33:55.199	4.011	-4371.33
13:33:55.199	4.012	-4369.8
13:33:55.201	4.013	-4359.88
13:33:55.202	4.014	-4356.83
13:33:55.202	4.015	-4368.28
13:33:55.204	4.016	-4359.12
13:33:55.205	4.017	-4343.86
13:33:55.206	4.018	-4341.57
13:33:55.207	4.019	-4344.63
13:33:55.207	4.02	-4334.71
13:33:55.209	4.021	-4307.24
13:33:55.210	4.022	-4309.53
13:33:55.210	4.023	-4307.24
13:33:55.212	4.024	-4304.19
13:33:55.213	4.025	-4311.05
13:33:55.214	4.026	-4312.58
13:33:55.215	4.027	-4304.19
13:33:55.215	4.028	-4307.24
13:33:55.217	4.029	-4311.82
13:33:55.218	4.03	-4321.74
13:33:55.218	4.031	-4314.11
13:33:55.220	4.032	-4286.64
13:33:55.221	4.033	-4278.25
13:33:55.222	4.034	-4290.46
13:33:55.223	4.035	-4282.83
13:33:55.223	4.036	-4279.01
13:33:55.225	4.037	-4269.09
13:33:55.226	4.038	-4263.75
13:33:55.226	4.039	-4243.92
13:33:55.228	4.04	-4228.66
13:33:55.229	4.041	-4224.84
13:33:55.230	4.042	-4226.37
13:33:55.231	4.043	-4238.58
13:33:55.231	4.044	-4232.47
13:33:55.233	4.045	-4208.82
13:33:55.234	4.046	-4198.9
13:33:55.234	4.047	-4214.92
13:33:55.236	4.048	-4218.74
13:33:55.237	4.049	-4200.43
13:33:55.238	4.05	-4188.22
13:33:55.239	4.051	-4188.22
13:33:55.239	4.052	-4192.8
13:33:55.241	4.053	-4185.17
13:33:55.242	4.054	-4165.33
13:33:55.242	4.055	-4148.55
13:33:55.244	4.056	-4150.83
13:33:55.245	4.057	-4153.89
13:33:55.246	4.058	-4164.57
13:33:55.247	4.059	-4159.99
13:33:55.247	4.06	-4158.46
13:33:55.249	4.061	-4153.12
13:33:55.250	4.062	-4133.29
13:33:55.250	4.063	-4131.76
13:33:55.252	4.064	-4149.31
13:33:55.253	4.065	-4145.49
13:33:55.254	4.066	-4153.12
13:33:55.255	4.067	-4134.05
13:33:55.255	4.068	-4114.98
13:33:55.257	4.069	-4118.79
13:33:55.258	4.07	-4123.37
13:33:55.258	4.071	-4129.47
13:33:55.260	4.072	-4140.15
13:33:55.261	4.073	-4147.78
13:33:55.262	4.074	-4148.55
13:33:55.263	4.075	-4146.26
13:33:55.263	4.076	-4158.46
13:33:55.265	4.077	-4159.99
13:33:55.266	4.078	-4156.18
13:33:55.266	4.079	-4150.07
13:33:55.268	4.08	-4145.49
13:33:55.269	4.081	-4162.28
13:33:55.270	4.082	-4166.86
13:33:55.271	4.083	-4145.49
13:33:55.271	4.084	-4127.95
13:33:55.273	4.085	-4127.95
13:33:55.274	4.086	-4138.63
13:33:55.274	4.087	-4150.07
13:33:55.276	4.088	-4137.87
13:33:55.277	4.089	-4133.29
13:33:55.278	4.09	-4163.04
13:33:55.279	4.091	-4188.22
13:33:55.279	4.092	-4195.85
13:33:55.281	4.093	-4202.72
13:33:55.282	4.094	-4212.64
13:33:55.282	4.095	-4221.03
13:33:55.284	4.096	-4209.58
13:33:55.285	4.097	-4213.4
13:33:55.286	4.098	-4208.06
13:33:55.287	4.099	-4217.98
13:33:55.288	4.1	-4243.92
13:33:55.289	4.101	-4250.02
13:33:55.290	4.102	-4246.97
13:33:55.291	4.103	-4248.49
13:33:55.292	4.104	-4264.52
13:33:55.293	4.105	-4272.91
13:33:55.294	4.106	-4282.83
13:33:55.295	4.107	-4318.69
13:33:55.296	4.108	-4327.08
13:33:55.297	4.109	-4326.31
13:33:55.298	4.11	-4319.45
13:33:55.299	4.111	-4301.9
13:33:55.300	4.112	-4310.29
13:33:55.301	4.113	-4353.02
13:33:55.302	4.114	-4382.01
13:33:55.303	4.115	-4353.78
13:33:55.304	4.116	-4342.34
13:33:55.305	4.117	-4364.46
13:33:55.306	4.118	-4376.67
13:33:55.307	4.119	-4376.67
13:33:55.308	4.12	-4366.75
13:33:55.309	4.121	-4359.88
13:33:55.310	4.122	-4373.62
13:33:55.311	4.123	-4386.59
13:33:55.312	4.124	-4390.4
13:33:55.313	4.125	-4401.85
13:33:55.314	4.126	-4421.68
13:33:55.315	4.127	-4441.52
13:33:55.316	4.128	-4447.62
13:33:55.317	4.129	-4429.31
13:33:55.318	4.13	-4424.73
13:33:55.319	4.131	-4431.6
13:33:55.320	4.132	-4436.18
13:33:55.321	4.133	-4438.47
13:33:55.322	4.134	-4436.18
13:33:55.323	4.135	-4438.47
13:33:55.324	4.136	-4445.34
13:33:55.325	4.137	-4449.91
13:33:55.326	4.138	-4465.93
13:33:55.327	4.139	-4481.19
13:33:55.328	4.14	-4484.25
13:33:55.329	4.141	-4474.33
13:33:55.330	4.142	-4472.04
13:33:55.331	4.143	-4493.4
13:33:55.332	4.144	-4509.42
13:33:55.333	4.145	-4491.11
13:33:55.334	4.146	-4446.1
13:33:55.335	4.147	-4450.68
13:33:55.336	4.148	-4465.93
13:33:55.337	4.149	-4468.22
13:33:55.338	4.15	-4459.83
13:33:55.339	4.151	-4447.62
13:33:55.340	4.152	-4470.51
13:33:55.341	4.153	-4487.3
13:33:55.342	4.154	-4483.48
13:33:55.343	4.155	-4491.87
13:33:55.344	4.156	-4515.53
13:33:55.345	4.157	-4530.02
13:33:55.346	4.158	-4528.5
13:33:55.347	4.159	-4512.47
13:33:55.348	4.16	-4489.59
13:33:55.349	4.161	-4485.01
13:33:55.350	4.162	-4485.01
13:33:55.351	4.163	-4482.72
13:33:55.352	4.164	-4477.38
13:33:55.353	4.165	-4506.37
13:33:55.354	4.166	-4514
13:33:55.355	4.167	-4493.4
13:33:55.356	4.168	-4485.01
13:33:55.357	4.169	-4485.77
13:33:55.358	4.17	-4479.67
13:33:55.359	4.171	-4495.69
13:33:55.360	4.172	-4510.19
13:33:55.361	4.173	-4498.74
13:33:55.362	4.174	-4481.19
13:33:55.363	4.175	-4479.67
13:33:55.364	4.176	-4499.5
13:33:55.365	4.177	-4522.39
13:33:55.366	4.178	-4538.41
13:33:55.367	4.179	-4535.36
13:33:55.368	4.18	-4520.1
13:33:55.369	4.181	-4523.16
13:33:55.370	4.182	-4531.55
13:33:55.371	4.183	-4527.73
13:33:55.372	4.184	-4514
13:33:55.373	4.185	-4499.5
13:33:55.374	4.186	-4508.66
13:33:55.375	4.187	-4523.92
13:33:55.376	4.188	-4527.73
13:33:55.377	4.189	-4522.39
13:33:55.378	4.19	-4539.94
13:33:55.379	4.191	-4539.18
13:33:55.380	4.192	-4502.56
13:33:55.381	4.193	-4472.04
13:33:55.382	4.194	-4486.53
13:33:55.383	4.195	-4502.56
13:33:55.384	4.196	-4494.16
13:33:55.385	4.197	-4485.01
13:33:55.386	4.198	-4480.43
13:33:55.387	4.199	-4488.82
13:33:55.388	4.2	-4494.16
13:33:55.389	4.201	-4497.22
13:33:55.390	4.202	-4509.42
13:33:55.391	4.203	-4512.47
13:33:55.392	4.204	-4501.79
13:33:55.393	4.205	-4486.53
13:33:55.394	4.206	-4463.65
13:33:55.395	4.207	-4454.49
13:33:55.396	4.208	-4464.41
13:33:55.397	4.209	-4480.43
13:33:55.398	4.21	-4487.3
13:33:55.399	4.211	-4504.08
13:33:55.400	4.212	-4510.95
13:33:55.401	4.213	-4505.61
13:33:55.402	4.214	-4503.32
13:33:55.403	4.215	-4497.22
13:33:55.404	4.216	-4485.77
13:33:55.405	4.217	-4479.67
13:33:55.406	4.218	-4478.14
13:33:55.407	4.219	-4496.45
13:33:55.408	4.22	-4501.79
13:33:55.409	4.221	-4489.59
13:33:55.410	4.222	-4478.14
13:33:55.411	4.223	-4483.48
13:33:55.412	4.224	-4475.85
13:33:55.413	4.225	-4479.67
13:33:55.414	4.226	-4481.19
13:33:55.415	4.227	-4488.06
13:33:55.416	4.228	-4491.87
13:33:55.417	4.229	-4498.74
13:33:55.418	4.23	-4491.11
13:33:55.419	4.231	-4494.16
13:33:55.420	4.232	-4507.9
13:33:55.421	4.233	-4504.08
13:33:55.422	4.234	-4478.14
13:33:55.423	4.235	-4449.91
13:33:55.424	4.236	-4459.83
13:33:55.425	4.237	-4478.14
13:33:55.426	4.238	-4481.19
13:33:55.427	4.239	-4475.09
13:33:55.428	4.24	-4485.01
13:33:55.429	4.241	-4485.01
13:33:55.430	4.242	-4470.51
13:33:55.431	4.243	-4480.43
13:33:55.432	4.244	-4476.62
13:33:55.433	4.245	-4477.38
13:33:55.434	4.246	-4492.64
13:33:55.435	4.247	-4501.03
13:33:55.436	4.248	-4487.3
13:33:55.437	4.249	-4464.41
13:33:55.438	4.25	-4460.59
13:33:55.439	4.251	-4480.43
13:33:55.440	4.252	-4494.93
13:33:55.441	4.253	-4478.9
13:33:55.442	4.254	-4481.96
13:33:55.443	4.255	-4485.01
13:33:55.444	4.256	-4486.53
13:33:55.445	4.257	-4480.43
13:33:55.446	4.258	-4472.8
13:33:55.447	4.259	-4475.85
13:33:55.448	4.26	-4469.75
13:33:55.449	4.261	-4480.43
13:33:55.450	4.262	-4485.01
13:33:55.451	4.263	-4481.19
13:33:55.452	4.264	-4466.7
13:33:55.453	4.265	-4456.78
13:33:55.454	4.266	-4463.65
13:33:55.455	4.267	-4460.59
13:33:55.456	4.268	-4459.07
13:33:55.457	4.269	-4481.19
13:33:55.458	4.27	-4494.93
13:33:55.459	4.271	-4497.22
13:33:55.460	4.272	-4495.69
13:33:55.461	4.273	-4473.56
13:33:55.462	4.274	-4447.62
13:33:55.463	4.275	-4459.07
13:33:55.464	4.276	-4495.69
13:33:55.465	4.277	-4503.32
13:33:55.466	4.278	-4487.3
13:33:55.467	4.279	-4489.59
13:33:55.468	4.28	-4491.11
13:33:55.469	4.281	-4488.06
13:33:55.470	4.282	-4485.01
13:33:55.471	4.283	-4478.9
13:33:55.472	4.284	-4471.28
13:33:55.473	4.285	-4491.87
13:33:55.474	4.286	-4501.03
13:33:55.475	4.287	-4466.7
13:33:55.476	4.288	-4438.47
13:33:55.477	4.289	-4462.88
13:33:55.478	4.29	-4481.19
13:33:55.479	4.291	-4480.43
13:33:55.480	4.292	-4469.75
13:33:55.481	4.293	-4469.75
13:33:55.482	4.294	-4465.17
13:33:55.483	4.295	-4457.54
13:33:55.484	4.296	-4459.83
13:33:55.485	4.297	-4463.65
13:33:55.486	4.298	-4474.33
13:33:55.487	4.299	-4478.9
13:33:55.488	4.3	-4481.19
13:33:55.489	4.301	-4476.62
13:33:55.490	4.302	-4459.07
13:33:55.491	4.303	-4462.12
13:33:55.492	4.304	-4494.16
13:33:55.493	4.305	-4497.22
13:33:55.494	4.306	-4486.53
13:33:55.495	4.307	-4485.77
13:33:55.496	4.308	-4494.16
13:33:55.497	4.309	-4495.69
13:33:55.498	4.31	-4486.53
13:33:55.499	4.311	-4490.35
13:33:55.500	4.312	-4498.74
13:33:55.501	4.313	-4488.82
13:33:55.502	4.314	-4486.53
13:33:55.503	4.315	-4496.45
13:33:55.504	4.316	-4494.16
13:33:55.505	4.317	-4493.4
