TimeOfDay	Time	Sig
13:35:06.141	0	-983.367
13:35:06.142	0.001	-982.341
13:35:06.143	0.002	-981.234
13:35:06.144	0.003	-980.041
13:35:06.145	0.004	-978.757
13:35:06.146	0.005	-977.376
13:35:06.147	0.006	-975.897
13:35:06.148	0.007	-974.326
13:35:06.149	0.008	-972.675
13:35:06.150	0.009	-970.962
13:35:06.151	0.01	-969.209
13:35:06.152	0.011	-967.443
13:35:06.153	0.012	-965.686
13:35:06.154	0.013	-963.95
13:35:06.155	0.014	-962.238
13:35:06.156	0.015	-960.542
13:35:06.157	0.016	-958.859
13:35:06.158	0.017	-957.202
13:35:06.159	0.018	-955.602
13:35:06.160	0.019	-954.105
13:35:06.161	0.02	-952.766
13:35:06.162	0.021	-951.645
13:35:06.163	0.022	-950.799
13:35:06.164	0.023	-950.275
13:35:06.165	0.024	-950.102
13:35:06.166	0.025	-950.285
13:35:06.167	0.026	-950.81
13:35:06.168	0.027	-951.647
13:35:06.169	0.028	-952.765
13:35:06.170	0.029	-954.139
13:35:06.171	0.03	-955.75
13:35:06.172	0.031	-957.585
13:35:06.173	0.032	-959.632
13:35:06.174	0.033	-961.881
13:35:06.175	0.034	-964.323
13:35:06.176	0.035	-966.948
13:35:06.177	0.036	-969.741
13:35:06.178	0.037	-972.675
13:35:06.179	0.038	-975.716
13:35:06.180	0.039	-978.826
13:35:06.181	0.04	-981.967
13:35:06.182	0.041	-985.107
13:35:06.183	0.042	-988.219
13:35:06.184	0.043	-991.276
13:35:06.185	0.044	-994.245
13:35:06.186	0.045	-997.095
13:35:06.187	0.046	-999.8
13:35:06.188	0.047	-1002.34
13:35:06.189	0.048	-1004.7
13:35:06.190	0.049	-1006.85
13:35:06.191	0.05	-1008.78
13:35:06.192	0.051	-1010.48
13:35:06.193	0.052	-1011.97
13:35:06.194	0.053	-1013.24
13:35:06.195	0.054	-1014.34
13:35:06.196	0.055	-1015.28
13:35:06.197	0.056	-1016.1
13:35:06.198	0.057	-1016.83
13:35:06.199	0.058	-1017.51
13:35:06.200	0.059	-1018.16
13:35:06.201	0.06	-1018.8
13:35:06.202	0.061	-1019.43
13:35:06.203	0.062	-1020.04
13:35:06.204	0.063	-1020.61
13:35:06.205	0.064	-1021.09
13:35:06.206	0.065	-1021.44
13:35:06.207	0.066	-1021.66
13:35:06.208	0.067	-1021.74
13:35:06.209	0.068	-1021.69
13:35:06.210	0.069	-1021.55
13:35:06.211	0.07	-1021.32
13:35:06.212	0.071	-1021.03
13:35:06.213	0.072	-1020.68
13:35:06.214	0.073	-1020.3
13:35:06.215	0.074	-1019.88
13:35:06.216	0.075	-1019.45
13:35:06.217	0.076	-1019
13:35:06.218	0.077	-1018.54
13:35:06.219	0.078	-1018.08
13:35:06.220	0.079	-1017.61
13:35:06.221	0.08	-1017.14
13:35:06.222	0.081	-1016.67
13:35:06.223	0.082	-1016.2
13:35:06.224	0.083	-1015.72
13:35:06.225	0.084	-1015.26
13:35:06.226	0.085	-1014.83
13:35:06.227	0.086	-1014.44
13:35:06.228	0.087	-1014.11
13:35:06.229	0.088	-1013.86
13:35:06.230	0.089	-1013.7
13:35:06.231	0.09	-1013.61
13:35:06.232	0.091	-1013.57
13:35:06.233	0.092	-1013.55
13:35:06.234	0.093	-1013.54
13:35:06.235	0.094	-1013.51
13:35:06.236	0.095	-1013.44
13:35:06.237	0.096	-1013.3
13:35:06.238	0.097	-1013.08
13:35:06.239	0.098	-1012.73
13:35:06.240	0.099	-1012.25
13:35:06.241	0.1	-1011.64
13:35:06.242	0.101	-1010.91
13:35:06.243	0.102	-1010.08
13:35:06.244	0.103	-1009.16
13:35:06.245	0.104	-1008.17
13:35:06.246	0.105	-1007.13
13:35:06.247	0.106	-1006.07
13:35:06.248	0.107	-1005
13:35:06.249	0.108	-1003.93
13:35:06.250	0.109	-1002.89
13:35:06.251	0.11	-1001.87
13:35:06.252	0.111	-1000.86
13:35:06.253	0.112	-999.87
13:35:06.254	0.113	-998.867
13:35:06.255	0.114	-997.827
13:35:06.256	0.115	-996.697
13:35:06.257	0.116	-995.395
13:35:06.258	0.117	-993.807
13:35:06.259	0.118	-991.798
13:35:06.260	0.119	-989.217
13:35:06.261	0.12	-985.906
13:35:06.262	0.121	-981.698
13:35:06.263	0.122	-976.433
13:35:06.264	0.123	-969.959
13:35:06.265	0.124	-962.147
13:35:06.266	0.125	-952.905
13:35:06.267	0.126	-942.179
13:35:06.268	0.127	-929.958
13:35:06.269	0.128	-916.272
13:35:06.270	0.129	-901.184
13:35:06.271	0.13	-884.789
13:35:06.272	0.131	-867.204
13:35:06.273	0.132	-848.566
13:35:06.274	0.133	-829.033
13:35:06.275	0.134	-808.783
13:35:06.276	0.135	-788.024
13:35:06.277	0.136	-766.989
13:35:06.278	0.137	-745.93
13:35:06.279	0.138	-725.115
13:35:06.280	0.139	-704.824
13:35:06.281	0.14	-685.34
13:35:06.282	0.141	-666.952
13:35:06.283	0.142	-649.953
13:35:06.284	0.143	-634.628
13:35:06.285	0.144	-621.246
13:35:06.286	0.145	-610.043
13:35:06.287	0.146	-601.22
13:35:06.288	0.147	-594.934
13:35:06.289	0.148	-591.304
13:35:06.290	0.149	-590.411	mark
13:35:06.291	0.15	-592.297
13:35:06.292	0.151	-596.965
13:35:06.293	0.152	-604.371
13:35:06.294	0.153	-614.434
13:35:06.295	0.154	-627.033
13:35:06.296	0.155	-642.019
13:35:06.297	0.156	-659.207
13:35:06.298	0.157	-678.372
13:35:06.299	0.158	-699.257
13:35:06.300	0.159	-721.575
13:35:06.301	0.16	-745.026
13:35:06.302	0.161	-769.301
13:35:06.303	0.162	-794.089
13:35:06.304	0.163	-819.076
13:35:06.305	0.164	-843.958
13:35:06.306	0.165	-868.437
13:35:06.307	0.166	-892.234
13:35:06.308	0.167	-915.09
13:35:06.309	0.168	-936.774
13:35:06.310	0.169	-957.091
13:35:06.311	0.17	-975.885
13:35:06.312	0.171	-993.034
13:35:06.313	0.172	-1008.45
13:35:06.314	0.173	-1022.05
13:35:06.315	0.174	-1033.83
13:35:06.316	0.175	-1043.77
13:35:06.317	0.176	-1051.9
13:35:06.318	0.177	-1058.28
13:35:06.319	0.178	-1062.99
13:35:06.320	0.179	-1066.13
13:35:06.321	0.18	-1067.79
13:35:06.322	0.181	-1068.13
13:35:06.323	0.182	-1067.29
13:35:06.324	0.183	-1065.41
13:35:06.325	0.184	-1062.66
13:35:06.326	0.185	-1059.14
13:35:06.327	0.186	-1054.98
13:35:06.328	0.187	-1050.29
13:35:06.329	0.188	-1045.16
13:35:06.330	0.189	-1039.69
13:35:06.331	0.19	-1033.93
13:35:06.332	0.191	-1027.96
13:35:06.333	0.192	-1021.85
13:35:06.334	0.193	-1015.67
13:35:06.335	0.194	-1009.47
13:35:06.336	0.195	-1003.34
13:35:06.337	0.196	-997.317
13:35:06.338	0.197	-991.452
13:35:06.339	0.198	-985.782
13:35:06.340	0.199	-980.332
13:35:06.341	0.2	-975.12
13:35:06.342	0.201	-970.144
13:35:06.343	0.202	-965.39
13:35:06.344	0.203	-960.83
13:35:06.345	0.204	-956.438
13:35:06.346	0.205	-952.195
13:35:06.347	0.206	-948.089
13:35:06.348	0.207	-944.112
13:35:06.349	0.208	-940.251
13:35:06.350	0.209	-936.492
13:35:06.351	0.21	-932.826
13:35:06.352	0.211	-929.257
13:35:06.353	0.212	-925.792
13:35:06.354	0.213	-922.445
13:35:06.355	0.214	-919.228
13:35:06.356	0.215	-916.151
13:35:06.357	0.216	-913.213
13:35:06.358	0.217	-910.412
13:35:06.359	0.218	-907.743
13:35:06.360	0.219	-905.214
13:35:06.361	0.22	-902.837
13:35:06.362	0.221	-900.63
13:35:06.363	0.222	-898.613
13:35:06.364	0.223	-896.799
13:35:06.365	0.224	-895.196
13:35:06.366	0.225	-893.8
13:35:06.367	0.226	-892.597
13:35:06.368	0.227	-891.563
13:35:06.369	0.228	-890.668
13:35:06.370	0.229	-889.876
13:35:06.371	0.23	-889.16
13:35:06.372	0.231	-888.499
13:35:06.373	0.232	-887.882
13:35:06.374	0.233	-887.302
13:35:06.375	0.234	-886.754
13:35:06.376	0.235	-886.234
13:35:06.377	0.236	-885.744
13:35:06.378	0.237	-885.278
13:35:06.379	0.238	-884.817
13:35:06.380	0.239	-884.339
13:35:06.381	0.24	-883.825
13:35:06.382	0.241	-883.271
13:35:06.383	0.242	-882.685
13:35:06.384	0.243	-882.079
13:35:06.385	0.244	-881.461
13:35:06.386	0.245	-880.83
13:35:06.387	0.246	-880.177
13:35:06.388	0.247	-879.49
13:35:06.389	0.248	-878.749
13:35:06.390	0.249	-877.938
13:35:06.391	0.25	-877.042
13:35:06.392	0.251	-876.056
13:35:06.393	0.252	-874.986
13:35:06.394	0.253	-873.846
13:35:06.395	0.254	-872.654
13:35:06.396	0.255	-871.429
13:35:06.397	0.256	-870.188
13:35:06.398	0.257	-868.946
13:35:06.399	0.258	-867.713
13:35:06.400	0.259	-866.501
13:35:06.401	0.26	-865.319
13:35:06.402	0.261	-864.175
13:35:06.403	0.262	-863.072
13:35:06.404	0.263	-862.002
13:35:06.405	0.264	-860.945
13:35:06.406	0.265	-859.878
13:35:06.407	0.266	-858.782
13:35:06.408	0.267	-857.651
13:35:06.409	0.268	-856.49
13:35:06.410	0.269	-855.308
13:35:06.411	0.27	-854.106
13:35:06.412	0.271	-852.885
13:35:06.413	0.272	-851.634
13:35:06.414	0.273	-850.338
13:35:06.415	0.274	-848.979
13:35:06.416	0.275	-847.542
13:35:06.417	0.276	-846.028
13:35:06.418	0.277	-844.445
13:35:06.419	0.278	-842.805
13:35:06.420	0.279	-841.112
13:35:06.421	0.28	-839.373
13:35:06.422	0.281	-837.598
13:35:06.423	0.282	-835.8
13:35:06.424	0.283	-833.991
13:35:06.425	0.284	-832.168
13:35:06.426	0.285	-830.32
13:35:06.427	0.286	-828.426
13:35:06.428	0.287	-826.463
13:35:06.429	0.288	-824.408
13:35:06.430	0.289	-822.24
13:35:06.431	0.29	-819.935
13:35:06.432	0.291	-817.471
13:35:06.433	0.292	-814.825
13:35:06.434	0.293	-811.98
13:35:06.435	0.294	-808.931
13:35:06.436	0.295	-805.687
13:35:06.437	0.296	-802.268
13:35:06.438	0.297	-798.704
13:35:06.439	0.298	-795.025
13:35:06.440	0.299	-791.258
13:35:06.441	0.3	-787.43
13:35:06.442	0.301	-783.572
13:35:06.443	0.302	-779.715
13:35:06.444	0.303	-775.902
13:35:06.445	0.304	-772.175
13:35:06.446	0.305	-768.568
13:35:06.447	0.306	-765.105
13:35:06.448	0.307	-761.793
13:35:06.449	0.308	-758.632
13:35:06.450	0.309	-755.612
13:35:06.451	0.31	-752.711
13:35:06.452	0.311	-749.9
13:35:06.453	0.312	-747.143
13:35:06.454	0.313	-744.409
13:35:06.455	0.314	-741.664
13:35:06.456	0.315	-738.872
13:35:06.457	0.316	-735.992
13:35:06.458	0.317	-732.979
13:35:06.459	0.318	-729.792
13:35:06.460	0.319	-726.396
13:35:06.461	0.32	-722.774
13:35:06.462	0.321	-718.93
13:35:06.463	0.322	-714.891
13:35:06.464	0.323	-710.696
13:35:06.465	0.324	-706.392
13:35:06.466	0.325	-702.018
13:35:06.467	0.326	-697.6
13:35:06.468	0.327	-693.146
13:35:06.469	0.328	-688.66
13:35:06.470	0.329	-684.139
13:35:06.471	0.33	-679.574
13:35:06.472	0.331	-674.949
13:35:06.473	0.332	-670.242
13:35:06.474	0.333	-665.439
13:35:06.475	0.334	-660.546
13:35:06.476	0.335	-655.58
13:35:06.477	0.336	-650.565
13:35:06.478	0.337	-645.522
13:35:06.479	0.338	-640.464
13:35:06.480	0.339	-635.398
13:35:06.481	0.34	-630.329
13:35:06.482	0.341	-625.257
13:35:06.483	0.342	-620.186
13:35:06.484	0.343	-615.125
13:35:06.485	0.344	-610.095
13:35:06.486	0.345	-605.124
13:35:06.487	0.346	-600.241
13:35:06.488	0.347	-595.473
13:35:06.489	0.348	-590.837
13:35:06.490	0.349	-586.346
13:35:06.491	0.35	-582.008
13:35:06.492	0.351	-577.834
13:35:06.493	0.352	-573.828
13:35:06.494	0.353	-569.995
13:35:06.495	0.354	-566.336
13:35:06.496	0.355	-562.858
13:35:06.497	0.356	-559.575
13:35:06.498	0.357	-556.513
13:35:06.499	0.358	-553.696
13:35:06.500	0.359	-551.148
13:35:06.501	0.36	-548.882
13:35:06.502	0.361	-546.907
13:35:06.503	0.362	-545.23
13:35:06.504	0.363	-543.863
13:35:06.505	0.364	-542.819
13:35:06.506	0.365	-542.108
13:35:06.507	0.366	-541.732
13:35:06.508	0.367	-541.688
13:35:06.509	0.368	-541.966
13:35:06.510	0.369	-542.558
13:35:06.511	0.37	-543.457
13:35:06.512	0.371	-544.652
13:35:06.513	0.372	-546.13
13:35:06.514	0.373	-547.873
13:35:06.515	0.374	-549.866
13:35:06.516	0.375	-552.102
13:35:06.517	0.376	-554.574
13:35:06.518	0.377	-557.276
13:35:06.519	0.378	-560.199
13:35:06.520	0.379	-563.334
13:35:06.521	0.38	-566.672
13:35:06.522	0.381	-570.203
13:35:06.523	0.382	-573.922
13:35:06.524	0.383	-577.826
13:35:06.525	0.384	-581.923
13:35:06.526	0.385	-586.222
13:35:06.527	0.386	-590.745
13:35:06.528	0.387	-595.523
13:35:06.529	0.388	-600.598
13:35:06.530	0.389	-606.002
13:35:06.531	0.39	-611.758
13:35:06.532	0.391	-617.877
13:35:06.533	0.392	-624.355
13:35:06.534	0.393	-631.179
13:35:06.535	0.394	-638.324
13:35:06.536	0.395	-645.753
13:35:06.537	0.396	-653.42
13:35:06.538	0.397	-661.273
13:35:06.539	0.398	-669.249
13:35:06.540	0.399	-677.289
13:35:06.541	0.4	-685.334
13:35:06.542	0.401	-693.343
13:35:06.543	0.402	-701.286
13:35:06.544	0.403	-709.143
13:35:06.545	0.404	-716.895
13:35:06.546	0.405	-724.511
13:35:06.547	0.406	-731.949
13:35:06.548	0.407	-739.164
13:35:06.549	0.408	-746.119
13:35:06.550	0.409	-752.785
13:35:06.551	0.41	-759.152
13:35:06.552	0.411	-765.227
13:35:06.553	0.412	-771.029
13:35:06.554	0.413	-776.58
13:35:06.555	0.414	-781.897
13:35:06.556	0.415	-786.995
13:35:06.557	0.416	-791.888
13:35:06.558	0.417	-796.587
13:35:06.559	0.418	-801.102
13:35:06.560	0.419	-805.45
13:35:06.561	0.42	-809.659
13:35:06.562	0.421	-813.764
13:35:06.563	0.422	-817.799
13:35:06.564	0.423	-821.792
13:35:06.565	0.424	-825.769
13:35:06.566	0.425	-829.746
13:35:06.567	0.426	-833.737
13:35:06.568	0.427	-837.74
13:35:06.569	0.428	-841.742
13:35:06.570	0.429	-845.722
13:35:06.571	0.43	-849.656
13:35:06.572	0.431	-853.535
13:35:06.573	0.432	-857.365
13:35:06.574	0.433	-861.156
13:35:06.575	0.434	-864.921
13:35:06.576	0.435	-868.653
13:35:06.577	0.436	-872.332
13:35:06.578	0.437	-875.927
13:35:06.579	0.438	-879.406
13:35:06.580	0.439	-882.743
13:35:06.581	0.44	-885.926
13:35:06.582	0.441	-888.949
13:35:06.583	0.442	-891.817
13:35:06.584	0.443	-894.541
13:35:06.585	0.444	-897.131
13:35:06.586	0.445	-899.592
13:35:06.587	0.446	-901.923
13:35:06.588	0.447	-904.12
13:35:06.589	0.448	-906.176
13:35:06.590	0.449	-908.086
13:35:06.591	0.45	-909.842
13:35:06.592	0.451	-911.431
13:35:06.593	0.452	-912.841
13:35:06.594	0.453	-914.054
13:35:06.595	0.454	-915.051
13:35:06.596	0.455	-915.812
13:35:06.597	0.456	-916.329
13:35:06.598	0.457	-916.605
13:35:06.599	0.458	-916.657
13:35:06.600	0.459	-916.501
13:35:06.601	0.46	-916.159
13:35:06.602	0.461	-915.658
13:35:06.603	0.462	-915.035
13:35:06.604	0.463	-914.33
13:35:06.605	0.464	-913.591
13:35:06.606	0.465	-912.858
13:35:06.607	0.466	-912.162
13:35:06.608	0.467	-911.516
13:35:06.609	0.468	-910.92
13:35:06.610	0.469	-910.369
13:35:06.611	0.47	-909.862
13:35:06.612	0.471	-909.395
13:35:06.613	0.472	-908.964
13:35:06.614	0.473	-908.562
13:35:06.615	0.474	-908.182
13:35:06.616	0.475	-907.819
13:35:06.617	0.476	-907.472
13:35:06.618	0.477	-907.147
13:35:06.619	0.478	-906.852
13:35:06.620	0.479	-906.595
13:35:06.621	0.48	-906.381
13:35:06.622	0.481	-906.215
13:35:06.623	0.482	-906.096
13:35:06.624	0.483	-906.021
13:35:06.625	0.484	-905.985
13:35:06.626	0.485	-905.991
13:35:06.627	0.486	-906.052
13:35:06.628	0.487	-906.188
13:35:06.629	0.488	-906.417
13:35:06.630	0.489	-906.741
13:35:06.631	0.49	-907.139
13:35:06.632	0.491	-907.565
13:35:06.633	0.492	-907.963
13:35:06.634	0.493	-908.275
13:35:06.635	0.494	-908.451
13:35:06.636	0.495	-908.447
13:35:06.637	0.496	-908.234
13:35:06.638	0.497	-907.801
13:35:06.639	0.498	-907.148
13:35:06.640	0.499	-906.281
13:35:06.641	0.5	-905.208
13:35:06.642	0.501	-903.949
13:35:06.643	0.502	-902.533
13:35:06.644	0.503	-900.997
13:35:06.645	0.504	-899.374
13:35:06.646	0.505	-897.691
13:35:06.647	0.506	-895.973
13:35:06.648	0.507	-894.249
13:35:06.649	0.508	-892.554
13:35:06.650	0.509	-890.923
13:35:06.651	0.51	-889.393
13:35:06.652	0.511	-887.988
13:35:06.653	0.512	-886.721
13:35:06.654	0.513	-885.594
13:35:06.655	0.514	-884.595
13:35:06.656	0.515	-883.708
13:35:06.657	0.516	-882.919
13:35:06.658	0.517	-882.22
13:35:06.659	0.518	-881.6
13:35:06.660	0.519	-881.05
13:35:06.661	0.52	-880.552
13:35:06.662	0.521	-880.085
13:35:06.663	0.522	-879.623
13:35:06.664	0.523	-879.147
13:35:06.665	0.524	-878.644
13:35:06.666	0.525	-878.107
13:35:06.667	0.526	-877.535
13:35:06.668	0.527	-876.929
13:35:06.669	0.528	-876.283
13:35:06.670	0.529	-875.594
13:35:06.671	0.53	-874.856
13:35:06.672	0.531	-874.076
13:35:06.673	0.532	-873.268
13:35:06.674	0.533	-872.456
13:35:06.675	0.534	-871.668
13:35:06.676	0.535	-870.925
13:35:06.677	0.536	-870.236
13:35:06.678	0.537	-869.6
13:35:06.679	0.538	-869.01
13:35:06.680	0.539	-868.464
13:35:06.681	0.54	-867.959
13:35:06.682	0.541	-867.493
13:35:06.683	0.542	-867.063
13:35:06.684	0.543	-866.668
13:35:06.685	0.544	-866.314
13:35:06.686	0.545	-866.004
13:35:06.687	0.546	-865.744
13:35:06.688	0.547	-865.539
13:35:06.689	0.548	-865.388
13:35:06.690	0.549	-865.288
13:35:06.691	0.55	-865.232
13:35:06.692	0.551	-865.213
13:35:06.693	0.552	-865.225
13:35:06.694	0.553	-865.262
13:35:06.695	0.554	-865.317
13:35:06.696	0.555	-865.382
13:35:06.697	0.556	-865.447
13:35:06.698	0.557	-865.504
13:35:06.699	0.558	-865.544
13:35:06.700	0.559	-865.557
13:35:06.701	0.56	-865.53
13:35:06.702	0.561	-865.442
13:35:06.703	0.562	-865.269
13:35:06.704	0.563	-864.995
13:35:06.705	0.564	-864.613
13:35:06.706	0.565	-864.132
13:35:06.707	0.566	-863.571
13:35:06.708	0.567	-862.956
13:35:06.709	0.568	-862.309
13:35:06.710	0.569	-861.655
13:35:06.711	0.57	-861.012
13:35:06.712	0.571	-860.394
13:35:06.713	0.572	-859.817
13:35:06.714	0.573	-859.295
13:35:06.715	0.574	-858.845
13:35:06.716	0.575	-858.484
13:35:06.717	0.576	-858.224
13:35:06.718	0.577	-858.063
13:35:06.719	0.578	-857.982
13:35:06.720	0.579	-857.95
13:35:06.721	0.58	-857.939
13:35:06.722	0.581	-857.923
13:35:06.723	0.582	-857.884
13:35:06.724	0.583	-857.807
13:35:06.725	0.584	-857.679
13:35:06.726	0.585	-857.488
13:35:06.727	0.586	-857.216
13:35:06.728	0.587	-856.846
13:35:06.729	0.588	-856.361
13:35:06.730	0.589	-855.758
13:35:06.731	0.59	-855.046
13:35:06.732	0.591	-854.239
13:35:06.733	0.592	-853.355
13:35:06.734	0.593	-852.418
13:35:06.735	0.594	-851.456
13:35:06.736	0.595	-850.494
13:35:06.737	0.596	-849.547
13:35:06.738	0.597	-848.62
13:35:06.739	0.598	-847.713
13:35:06.740	0.599	-846.821
13:35:06.741	0.6	-845.939
13:35:06.742	0.601	-845.058
13:35:06.743	0.602	-844.166
13:35:06.744	0.603	-843.252
13:35:06.745	0.604	-842.317
13:35:06.746	0.605	-841.377
13:35:06.747	0.606	-840.455
13:35:06.748	0.607	-839.569
13:35:06.749	0.608	-838.729
13:35:06.750	0.609	-837.949
13:35:06.751	0.61	-837.242
13:35:06.752	0.611	-836.628
13:35:06.753	0.612	-836.124
13:35:06.754	0.613	-835.743
13:35:06.755	0.614	-835.49
13:35:06.756	0.615	-835.364
13:35:06.757	0.616	-835.361
13:35:06.758	0.617	-835.475
13:35:06.759	0.618	-835.7
13:35:06.760	0.619	-836.024
13:35:06.761	0.62	-836.444
13:35:06.762	0.621	-836.96
13:35:06.763	0.622	-837.576
13:35:06.764	0.623	-838.293
13:35:06.765	0.624	-839.111
13:35:06.766	0.625	-840.03
13:35:06.767	0.626	-841.045
13:35:06.768	0.627	-842.148
13:35:06.769	0.628	-843.33
13:35:06.770	0.629	-844.576
13:35:06.771	0.63	-845.876
13:35:06.772	0.631	-847.218
13:35:06.773	0.632	-848.588
13:35:06.774	0.633	-849.975
13:35:06.775	0.634	-851.363
13:35:06.776	0.635	-852.737
13:35:06.777	0.636	-854.085
13:35:06.778	0.637	-855.395
13:35:06.779	0.638	-856.66
13:35:06.780	0.639	-857.87
13:35:06.781	0.64	-859.008
13:35:06.782	0.641	-860.05
13:35:06.783	0.642	-860.971
13:35:06.784	0.643	-861.751
13:35:06.785	0.644	-862.385
13:35:06.786	0.645	-862.872
13:35:06.787	0.646	-863.21
13:35:06.788	0.647	-863.401
13:35:06.789	0.648	-863.451
13:35:06.790	0.649	-863.375
13:35:06.791	0.65	-863.197
13:35:06.792	0.651	-862.943
13:35:06.793	0.652	-862.637
13:35:06.794	0.653	-862.302
13:35:06.795	0.654	-861.957
13:35:06.796	0.655	-861.62
13:35:06.797	0.656	-861.303
13:35:06.798	0.657	-861.018
13:35:06.799	0.658	-860.78
13:35:06.800	0.659	-860.598
13:35:06.801	0.66	-860.473
13:35:06.802	0.661	-860.399
13:35:06.803	0.662	-860.366
13:35:06.804	0.663	-860.354
13:35:06.805	0.664	-860.337
13:35:06.806	0.665	-860.281
13:35:06.807	0.666	-860.153
13:35:06.808	0.667	-859.928
13:35:06.809	0.668	-859.598
13:35:06.810	0.669	-859.174
13:35:06.811	0.67	-858.684
13:35:06.812	0.671	-858.163
13:35:06.813	0.672	-857.643
13:35:06.814	0.673	-857.145
13:35:06.815	0.674	-856.671
13:35:06.816	0.675	-856.206
13:35:06.817	0.676	-855.722
13:35:06.818	0.677	-855.193
13:35:06.819	0.678	-854.598
13:35:06.820	0.679	-853.933
13:35:06.821	0.68	-853.214
13:35:06.822	0.681	-852.475
13:35:06.823	0.682	-851.751
13:35:06.824	0.683	-851.071
13:35:06.825	0.684	-850.449
13:35:06.826	0.685	-849.888
13:35:06.827	0.686	-849.384
13:35:06.828	0.687	-848.927
13:35:06.829	0.688	-848.509
13:35:06.830	0.689	-848.12
13:35:06.831	0.69	-847.752
13:35:06.832	0.691	-847.397
13:35:06.833	0.692	-847.052
13:35:06.834	0.693	-846.715
13:35:06.835	0.694	-846.381
13:35:06.836	0.695	-846.036
13:35:06.837	0.696	-845.667
13:35:06.838	0.697	-845.26
13:35:06.839	0.698	-844.804
13:35:06.840	0.699	-844.295
13:35:06.841	0.7	-843.734
13:35:06.842	0.701	-843.126
13:35:06.843	0.702	-842.484
13:35:06.844	0.703	-841.824
13:35:06.845	0.704	-841.172
13:35:06.846	0.705	-840.561
13:35:06.847	0.706	-840.032
13:35:06.848	0.707	-839.628
13:35:06.849	0.708	-839.393
13:35:06.850	0.709	-839.361
13:35:06.851	0.71	-839.551
13:35:06.852	0.711	-839.962
13:35:06.853	0.712	-840.573
13:35:06.854	0.713	-841.344
13:35:06.855	0.714	-842.222
13:35:06.856	0.715	-843.15
13:35:06.857	0.716	-844.073
13:35:06.858	0.717	-844.947
13:35:06.859	0.718	-845.739
13:35:06.860	0.719	-846.427
13:35:06.861	0.72	-846.997
13:35:06.862	0.721	-847.438
13:35:06.863	0.722	-847.74
13:35:06.864	0.723	-847.891
13:35:06.865	0.724	-847.884
13:35:06.866	0.725	-847.715
13:35:06.867	0.726	-847.384
13:35:06.868	0.727	-846.892
13:35:06.869	0.728	-846.245
13:35:06.870	0.729	-845.457
13:35:06.871	0.73	-844.551
13:35:06.872	0.731	-843.545
13:35:06.873	0.732	-842.453
13:35:06.874	0.733	-841.285
13:35:06.875	0.734	-840.057
13:35:06.876	0.735	-838.789
13:35:06.877	0.736	-837.497
13:35:06.878	0.737	-836.191
13:35:06.879	0.738	-834.872
13:35:06.880	0.739	-833.535
13:35:06.881	0.74	-832.176
13:35:06.882	0.741	-830.795
13:35:06.883	0.742	-829.395
13:35:06.884	0.743	-827.984
13:35:06.885	0.744	-826.575
13:35:06.886	0.745	-825.171
13:35:06.887	0.746	-823.771
13:35:06.888	0.747	-822.36
13:35:06.889	0.748	-820.923
13:35:06.890	0.749	-819.447
13:35:06.891	0.75	-817.928
13:35:06.892	0.751	-816.371
13:35:06.893	0.752	-814.789
13:35:06.894	0.753	-813.204
13:35:06.895	0.754	-811.636
13:35:06.896	0.755	-810.104
13:35:06.897	0.756	-808.617
13:35:06.898	0.757	-807.176
13:35:06.899	0.758	-805.776
13:35:06.900	0.759	-804.41
13:35:06.901	0.76	-803.071
13:35:06.902	0.761	-801.759
13:35:06.903	0.762	-800.475
13:35:06.904	0.763	-799.216
13:35:06.905	0.764	-797.97
13:35:06.906	0.765	-796.728
13:35:06.907	0.766	-795.488
13:35:06.908	0.767	-794.262
13:35:06.909	0.768	-793.067
13:35:06.910	0.769	-791.924
13:35:06.911	0.77	-790.841
13:35:06.912	0.771	-789.813
13:35:06.913	0.772	-788.832
13:35:06.914	0.773	-787.886
13:35:06.915	0.774	-786.97
13:35:06.916	0.775	-786.084
13:35:06.917	0.776	-785.231
13:35:06.918	0.777	-784.406
13:35:06.919	0.778	-783.6
13:35:06.920	0.779	-782.797
13:35:06.921	0.78	-781.984
13:35:06.922	0.781	-781.153
13:35:06.923	0.782	-780.297
13:35:06.924	0.783	-779.409
13:35:06.925	0.784	-778.486
13:35:06.926	0.785	-777.531
13:35:06.927	0.786	-776.564
13:35:06.928	0.787	-775.614
13:35:06.929	0.788	-774.728
13:35:06.930	0.789	-773.96
13:35:06.931	0.79	-773.361
13:35:06.932	0.791	-772.975
13:35:06.933	0.792	-772.843
13:35:06.934	0.793	-773.005
13:35:06.935	0.794	-773.494
13:35:06.936	0.795	-774.329
13:35:06.937	0.796	-775.509
13:35:06.938	0.797	-777.007
13:35:06.939	0.798	-778.779
13:35:06.940	0.799	-780.771
13:35:06.941	0.8	-782.936
13:35:06.942	0.801	-785.237
13:35:06.943	0.802	-787.649
13:35:06.944	0.803	-790.164
13:35:06.945	0.804	-792.779
13:35:06.946	0.805	-795.491
13:35:06.947	0.806	-798.291
13:35:06.948	0.807	-801.164
13:35:06.949	0.808	-804.096
13:35:06.950	0.809	-807.07
13:35:06.951	0.81	-810.06
13:35:06.952	0.811	-813.037
13:35:06.953	0.812	-815.965
13:35:06.954	0.813	-818.812
13:35:06.955	0.814	-821.546
13:35:06.956	0.815	-824.143
13:35:06.957	0.816	-826.592
13:35:06.958	0.817	-828.89
13:35:06.959	0.818	-831.037
13:35:06.960	0.819	-833.03
13:35:06.961	0.82	-834.86
13:35:06.962	0.821	-836.526
13:35:06.963	0.822	-838.032
13:35:06.964	0.823	-839.392
13:35:06.965	0.824	-840.623
13:35:06.966	0.825	-841.741
13:35:06.967	0.826	-842.766
13:35:06.968	0.827	-843.71
13:35:06.969	0.828	-844.58
13:35:06.970	0.829	-845.38
13:35:06.971	0.83	-846.112
13:35:06.972	0.831	-846.782
13:35:06.973	0.832	-847.392
13:35:06.974	0.833	-847.95
13:35:06.975	0.834	-848.458
13:35:06.976	0.835	-848.925
13:35:06.977	0.836	-849.36
13:35:06.978	0.837	-849.774
13:35:06.979	0.838	-850.178
13:35:06.980	0.839	-850.573
13:35:06.981	0.84	-850.952
13:35:06.982	0.841	-851.299
13:35:06.983	0.842	-851.594
13:35:06.984	0.843	-851.807
13:35:06.985	0.844	-851.909
13:35:06.986	0.845	-851.868
13:35:06.987	0.846	-851.659
13:35:06.988	0.847	-851.26
13:35:06.989	0.848	-850.661
13:35:06.990	0.849	-849.868
13:35:06.991	0.85	-848.898
13:35:06.992	0.851	-847.771
13:35:06.993	0.852	-846.506
13:35:06.994	0.853	-845.121
13:35:06.995	0.854	-843.646
13:35:06.996	0.855	-842.118
13:35:06.997	0.856	-840.583
13:35:06.998	0.857	-839.086
13:35:06.999	0.858	-837.663
13:35:07.000	0.859	-836.343
13:35:07.001	0.86	-835.142
13:35:07.002	0.861	-834.061
13:35:07.003	0.862	-833.092
13:35:07.004	0.863	-832.23
13:35:07.005	0.864	-831.473
13:35:07.006	0.865	-830.835
13:35:07.007	0.866	-830.336
13:35:07.008	0.867	-829.993
13:35:07.009	0.868	-829.814
13:35:07.010	0.869	-829.786
13:35:07.011	0.87	-829.885
13:35:07.012	0.871	-830.087
13:35:07.013	0.872	-830.369
13:35:07.014	0.873	-830.711
13:35:07.015	0.874	-831.094
13:35:07.016	0.875	-831.495
13:35:07.017	0.876	-831.881
13:35:07.018	0.877	-832.214
13:35:07.019	0.878	-832.446
13:35:07.020	0.879	-832.517
13:35:07.021	0.88	-832.357
13:35:07.022	0.881	-831.892
13:35:07.023	0.882	-831.042
13:35:07.024	0.883	-829.722
13:35:07.025	0.884	-827.84
13:35:07.026	0.885	-825.287
13:35:07.027	0.886	-821.943
13:35:07.028	0.887	-817.676
13:35:07.029	0.888	-812.358
13:35:07.030	0.889	-805.864
13:35:07.031	0.89	-798.089
13:35:07.032	0.891	-788.953
13:35:07.033	0.892	-778.408
13:35:07.034	0.893	-766.444
13:35:07.035	0.894	-753.092
13:35:07.036	0.895	-738.413
13:35:07.037	0.896	-722.498
13:35:07.038	0.897	-705.46
13:35:07.039	0.898	-687.43
13:35:07.040	0.899	-668.558
13:35:07.041	0.9	-649.014
13:35:07.042	0.901	-628.995
13:35:07.043	0.902	-608.726
13:35:07.044	0.903	-588.461
13:35:07.045	0.904	-568.475
13:35:07.046	0.905	-549.058
13:35:07.047	0.906	-530.506
13:35:07.048	0.907	-513.107
13:35:07.049	0.908	-497.141
13:35:07.050	0.909	-482.873
13:35:07.051	0.91	-470.549
13:35:07.052	0.911	-460.389
13:35:07.053	0.912	-452.58
13:35:07.054	0.913	-447.275
13:35:07.055	0.914	-444.588
13:35:07.056	0.915	-444.586	mark
13:35:07.057	0.916	-447.29
13:35:07.058	0.917	-452.675
13:35:07.059	0.918	-460.678
13:35:07.060	0.919	-471.204
13:35:07.061	0.92	-484.137
13:35:07.062	0.921	-499.343
13:35:07.063	0.922	-516.665
13:35:07.064	0.923	-535.919
13:35:07.065	0.924	-556.884
13:35:07.066	0.925	-579.301
13:35:07.067	0.926	-602.872
13:35:07.068	0.927	-627.276
13:35:07.069	0.928	-652.176
13:35:07.070	0.929	-677.236
13:35:07.071	0.93	-702.13
13:35:07.072	0.931	-726.543
13:35:07.073	0.932	-750.179
13:35:07.074	0.933	-772.768
13:35:07.075	0.934	-794.073
13:35:07.076	0.935	-813.905
13:35:07.077	0.936	-832.122
13:35:07.078	0.937	-848.63
13:35:07.079	0.938	-863.374
13:35:07.080	0.939	-876.328
13:35:07.081	0.94	-887.485
13:35:07.082	0.941	-896.857
13:35:07.083	0.942	-904.469
13:35:07.084	0.943	-910.37
13:35:07.085	0.944	-914.638
13:35:07.086	0.945	-917.385
13:35:07.087	0.946	-918.746
13:35:07.088	0.947	-918.874
13:35:07.089	0.948	-917.926
13:35:07.090	0.949	-916.055
13:35:07.091	0.95	-913.407
13:35:07.092	0.951	-910.125
13:35:07.093	0.952	-906.344
13:35:07.094	0.953	-902.188
13:35:07.095	0.954	-897.766
13:35:07.096	0.955	-893.166
13:35:07.097	0.956	-888.454
13:35:07.098	0.957	-883.671
13:35:07.099	0.958	-878.846
13:35:07.100	0.959	-874.013
13:35:07.101	0.96	-869.212
13:35:07.102	0.961	-864.49
13:35:07.103	0.962	-859.887
13:35:07.104	0.963	-855.424
13:35:07.105	0.964	-851.1
13:35:07.106	0.965	-846.903
13:35:07.107	0.966	-842.823
13:35:07.108	0.967	-838.863
13:35:07.109	0.968	-835.028
13:35:07.110	0.969	-831.331
13:35:07.111	0.97	-827.788
13:35:07.112	0.971	-824.41
13:35:07.113	0.972	-821.2
13:35:07.114	0.973	-818.157
13:35:07.115	0.974	-815.275
13:35:07.116	0.975	-812.551
13:35:07.117	0.976	-809.978
13:35:07.118	0.977	-807.547
13:35:07.119	0.978	-805.249
13:35:07.120	0.979	-803.076
13:35:07.121	0.98	-801.017
13:35:07.122	0.981	-799.057
13:35:07.123	0.982	-797.177
13:35:07.124	0.983	-795.352
13:35:07.125	0.984	-793.564
13:35:07.126	0.985	-791.8
13:35:07.127	0.986	-790.051
13:35:07.128	0.987	-788.306
13:35:07.129	0.988	-786.552
13:35:07.130	0.989	-784.773
13:35:07.131	0.99	-782.961
13:35:07.132	0.991	-781.109
13:35:07.133	0.992	-779.218
13:35:07.134	0.993	-777.289
13:35:07.135	0.994	-775.317
13:35:07.136	0.995	-773.296
13:35:07.137	0.996	-771.221
13:35:07.138	0.997	-769.098
13:35:07.139	0.998	-766.948
13:35:07.140	0.999	-764.802
13:35:07.141	1	-762.692
13:35:07.141	1.001	-760.653
13:35:07.143	1.002	-758.706
13:35:07.143	1.003	-756.858
13:35:07.145	1.004	-755.095
13:35:07.145	1.005	-753.392
13:35:07.147	1.006	-751.725
13:35:07.147	1.007	-750.075
13:35:07.149	1.008	-748.427
13:35:07.149	1.009	-746.766
13:35:07.151	1.01	-745.075
13:35:07.151	1.011	-743.339
13:35:07.153	1.012	-741.547
13:35:07.153	1.013	-739.692
13:35:07.155	1.014	-737.77
13:35:07.155	1.015	-735.789
13:35:07.157	1.016	-733.764
13:35:07.157	1.017	-731.72
13:35:07.159	1.018	-729.679
13:35:07.159	1.019	-727.655
13:35:07.161	1.02	-725.652
13:35:07.161	1.021	-723.666
13:35:07.163	1.022	-721.697
13:35:07.163	1.023	-719.75
13:35:07.165	1.024	-717.83
13:35:07.166	1.025	-715.944
13:35:07.167	1.026	-714.097
13:35:07.168	1.027	-712.301
13:35:07.169	1.028	-710.568
13:35:07.170	1.029	-708.914
13:35:07.171	1.03	-707.349
13:35:07.172	1.031	-705.875
13:35:07.173	1.032	-704.486
13:35:07.174	1.033	-703.168
13:35:07.175	1.034	-701.898
13:35:07.176	1.035	-700.651
13:35:07.177	1.036	-699.399
13:35:07.178	1.037	-698.108
13:35:07.179	1.038	-696.743
13:35:07.180	1.039	-695.279
13:35:07.181	1.04	-693.702
13:35:07.182	1.041	-692.01
13:35:07.183	1.042	-690.204
13:35:07.184	1.043	-688.289
13:35:07.185	1.044	-686.276
13:35:07.186	1.045	-684.187
13:35:07.187	1.046	-682.046
13:35:07.188	1.047	-679.876
13:35:07.189	1.048	-677.696
13:35:07.190	1.049	-675.517
13:35:07.191	1.05	-673.348
13:35:07.192	1.051	-671.196
13:35:07.193	1.052	-669.065
13:35:07.194	1.053	-666.954
13:35:07.195	1.054	-664.867
13:35:07.196	1.055	-662.804
13:35:07.197	1.056	-660.758
13:35:07.198	1.057	-658.717
13:35:07.199	1.058	-656.66
13:35:07.200	1.059	-654.561
13:35:07.201	1.06	-652.397
13:35:07.202	1.061	-650.147
13:35:07.203	1.062	-647.791
13:35:07.204	1.063	-645.312
13:35:07.205	1.064	-642.696
13:35:07.206	1.065	-639.934
13:35:07.207	1.066	-637.018
13:35:07.208	1.067	-633.941
13:35:07.209	1.068	-630.705
13:35:07.210	1.069	-627.318
13:35:07.211	1.07	-623.797
13:35:07.212	1.071	-620.156
13:35:07.213	1.072	-616.4
13:35:07.214	1.073	-612.523
13:35:07.215	1.074	-608.513
13:35:07.216	1.075	-604.348
13:35:07.217	1.076	-600.006
13:35:07.218	1.077	-595.471
13:35:07.219	1.078	-590.737
13:35:07.220	1.079	-585.816
13:35:07.221	1.08	-580.732
13:35:07.222	1.081	-575.525
13:35:07.223	1.082	-570.24
13:35:07.224	1.083	-564.924
13:35:07.225	1.084	-559.622
13:35:07.226	1.085	-554.367
13:35:07.227	1.086	-549.178
13:35:07.228	1.087	-544.058
13:35:07.229	1.088	-539.002
13:35:07.230	1.089	-533.992
13:35:07.231	1.09	-529.011
13:35:07.232	1.091	-524.04
13:35:07.233	1.092	-519.061
13:35:07.234	1.093	-514.061
13:35:07.235	1.094	-509.034
13:35:07.236	1.095	-503.98
13:35:07.237	1.096	-498.904
13:35:07.238	1.097	-493.816
13:35:07.239	1.098	-488.728
13:35:07.240	1.099	-483.651
13:35:07.241	1.1	-478.593
13:35:07.242	1.101	-473.557
13:35:07.243	1.102	-468.544
13:35:07.244	1.103	-463.551
13:35:07.245	1.104	-458.571
13:35:07.246	1.105	-453.595
13:35:07.247	1.106	-448.609
13:35:07.248	1.107	-443.605
13:35:07.249	1.108	-438.587
13:35:07.250	1.109	-433.571
13:35:07.251	1.11	-428.59
13:35:07.252	1.111	-423.684
13:35:07.253	1.112	-418.896
13:35:07.254	1.113	-414.268
13:35:07.255	1.114	-409.836
13:35:07.256	1.115	-405.634
13:35:07.257	1.116	-401.685
13:35:07.258	1.117	-398.005
13:35:07.259	1.118	-394.599
13:35:07.260	1.119	-391.462
13:35:07.261	1.12	-388.582
13:35:07.262	1.121	-385.948
13:35:07.263	1.122	-383.548
13:35:07.264	1.123	-381.374
13:35:07.265	1.124	-379.415
13:35:07.266	1.125	-377.66
13:35:07.267	1.126	-376.094
13:35:07.268	1.127	-374.707
13:35:07.269	1.128	-373.498
13:35:07.270	1.129	-372.481
13:35:07.271	1.13	-371.684
13:35:07.272	1.131	-371.137
13:35:07.273	1.132	-370.858
13:35:07.274	1.133	-370.859
13:35:07.275	1.134	-371.144
13:35:07.276	1.135	-371.72
13:35:07.277	1.136	-372.595
13:35:07.278	1.137	-373.774
13:35:07.279	1.138	-375.253
13:35:07.280	1.139	-377.02
13:35:07.281	1.14	-379.059
13:35:07.282	1.141	-381.356
13:35:07.283	1.142	-383.902
13:35:07.284	1.143	-386.696
13:35:07.285	1.144	-389.746
13:35:07.286	1.145	-393.065
13:35:07.287	1.146	-396.659
13:35:07.288	1.147	-400.527
13:35:07.289	1.148	-404.659
13:35:07.290	1.149	-409.036
13:35:07.291	1.15	-413.635
13:35:07.292	1.151	-418.419
13:35:07.293	1.152	-423.352
13:35:07.294	1.153	-428.399
13:35:07.295	1.154	-433.536
13:35:07.296	1.155	-438.754
13:35:07.297	1.156	-444.052
13:35:07.298	1.157	-449.437
13:35:07.299	1.158	-454.921
13:35:07.300	1.159	-460.517
13:35:07.301	1.16	-466.243
13:35:07.302	1.161	-472.116
13:35:07.303	1.162	-478.148
13:35:07.304	1.163	-484.352
13:35:07.305	1.164	-490.731
13:35:07.306	1.165	-497.28
13:35:07.307	1.166	-503.984
13:35:07.308	1.167	-510.822
13:35:07.309	1.168	-517.774
13:35:07.310	1.169	-524.824
13:35:07.311	1.17	-531.961
13:35:07.312	1.171	-539.171
13:35:07.313	1.172	-546.443
13:35:07.314	1.173	-553.763
13:35:07.315	1.174	-561.115
13:35:07.316	1.175	-568.482
13:35:07.317	1.176	-575.837
13:35:07.318	1.177	-583.152
13:35:07.319	1.178	-590.398
13:35:07.320	1.179	-597.539
13:35:07.321	1.18	-604.539
13:35:07.322	1.181	-611.362
13:35:07.323	1.182	-617.975
13:35:07.324	1.183	-624.347
13:35:07.325	1.184	-630.454
13:35:07.326	1.185	-636.28
13:35:07.327	1.186	-641.82
13:35:07.328	1.187	-647.071
13:35:07.329	1.188	-652.029
13:35:07.330	1.189	-656.681
13:35:07.331	1.19	-661.012
13:35:07.332	1.191	-665.02
13:35:07.333	1.192	-668.719
13:35:07.334	1.193	-672.141
13:35:07.335	1.194	-675.319
13:35:07.336	1.195	-678.289
13:35:07.337	1.196	-681.083
13:35:07.338	1.197	-683.732
13:35:07.339	1.198	-686.258
13:35:07.340	1.199	-688.673
13:35:07.341	1.2	-690.984
13:35:07.342	1.201	-693.191
13:35:07.343	1.202	-695.298
13:35:07.344	1.203	-697.314
13:35:07.345	1.204	-699.241
13:35:07.346	1.205	-701.076
13:35:07.347	1.206	-702.805
13:35:07.348	1.207	-704.413
13:35:07.349	1.208	-705.893
13:35:07.350	1.209	-707.244
13:35:07.351	1.21	-708.476
13:35:07.352	1.211	-709.604
13:35:07.353	1.212	-710.655
13:35:07.354	1.213	-711.657
13:35:07.355	1.214	-712.641
13:35:07.356	1.215	-713.632
13:35:07.357	1.216	-714.649
13:35:07.358	1.217	-715.698
13:35:07.359	1.218	-716.777
13:35:07.360	1.219	-717.887
13:35:07.361	1.22	-719.034
13:35:07.362	1.221	-720.232
13:35:07.363	1.222	-721.491
13:35:07.364	1.223	-722.814
13:35:07.365	1.224	-724.197
13:35:07.366	1.225	-725.634
13:35:07.367	1.226	-727.122
13:35:07.368	1.227	-728.667
13:35:07.369	1.228	-730.28
13:35:07.370	1.229	-731.97
13:35:07.371	1.23	-733.738
13:35:07.372	1.231	-735.577
13:35:07.373	1.232	-737.467
13:35:07.374	1.233	-739.383
13:35:07.375	1.234	-741.293
13:35:07.376	1.235	-743.162
13:35:07.377	1.236	-744.946
13:35:07.378	1.237	-746.598
13:35:07.379	1.238	-748.076
13:35:07.380	1.239	-749.346
13:35:07.381	1.24	-750.387
13:35:07.382	1.241	-751.195
13:35:07.383	1.242	-751.779
13:35:07.384	1.243	-752.16
13:35:07.385	1.244	-752.364
13:35:07.386	1.245	-752.407
13:35:07.387	1.246	-752.308
13:35:07.388	1.247	-752.085
13:35:07.389	1.248	-751.764
13:35:07.390	1.249	-751.374
13:35:07.391	1.25	-750.938
13:35:07.392	1.251	-750.466
13:35:07.393	1.252	-749.964
13:35:07.394	1.253	-749.435
13:35:07.395	1.254	-748.887
13:35:07.396	1.255	-748.335
13:35:07.397	1.256	-747.795
13:35:07.398	1.257	-747.28
13:35:07.399	1.258	-746.798
13:35:07.400	1.259	-746.355
13:35:07.401	1.26	-745.953
13:35:07.402	1.261	-745.589
13:35:07.403	1.262	-745.263
13:35:07.404	1.263	-744.978
13:35:07.405	1.264	-744.734
13:35:07.406	1.265	-744.524
13:35:07.407	1.266	-744.334
13:35:07.408	1.267	-744.135
13:35:07.409	1.268	-743.893
13:35:07.410	1.269	-743.567
13:35:07.411	1.27	-743.115
13:35:07.412	1.271	-742.507
13:35:07.413	1.272	-741.729
13:35:07.414	1.273	-740.791
13:35:07.415	1.274	-739.719
13:35:07.416	1.275	-738.554
13:35:07.417	1.276	-737.345
13:35:07.418	1.277	-736.146
13:35:07.419	1.278	-735.011
13:35:07.420	1.279	-733.985
13:35:07.421	1.28	-733.095
13:35:07.422	1.281	-732.353
13:35:07.423	1.282	-731.759
13:35:07.424	1.283	-731.304
13:35:07.425	1.284	-730.969
13:35:07.426	1.285	-730.726
13:35:07.427	1.286	-730.534
13:35:07.428	1.287	-730.349
13:35:07.429	1.288	-730.125
13:35:07.430	1.289	-729.815
13:35:07.431	1.29	-729.38
13:35:07.432	1.291	-728.79
13:35:07.433	1.292	-728.027
13:35:07.434	1.293	-727.098
13:35:07.435	1.294	-726.023
13:35:07.436	1.295	-724.841
13:35:07.437	1.296	-723.591
13:35:07.438	1.297	-722.317
13:35:07.439	1.298	-721.056
13:35:07.440	1.299	-719.844
13:35:07.441	1.3	-718.712
13:35:07.442	1.301	-717.679
13:35:07.443	1.302	-716.753
13:35:07.444	1.303	-715.929
13:35:07.445	1.304	-715.203
13:35:07.446	1.305	-714.572
13:35:07.447	1.306	-714.044
13:35:07.448	1.307	-713.63
13:35:07.449	1.308	-713.343
13:35:07.450	1.309	-713.191
13:35:07.451	1.31	-713.167
13:35:07.452	1.311	-713.25
13:35:07.453	1.312	-713.404
13:35:07.454	1.313	-713.596
13:35:07.455	1.314	-713.806
13:35:07.456	1.315	-714.028
13:35:07.457	1.316	-714.264
13:35:07.458	1.317	-714.518
13:35:07.459	1.318	-714.798
13:35:07.460	1.319	-715.113
13:35:07.461	1.32	-715.472
13:35:07.462	1.321	-715.87
13:35:07.463	1.322	-716.277
13:35:07.464	1.323	-716.646
13:35:07.465	1.324	-716.914
13:35:07.466	1.325	-717.032
13:35:07.467	1.326	-716.966
13:35:07.468	1.327	-716.707
13:35:07.469	1.328	-716.258
13:35:07.470	1.329	-715.64
13:35:07.471	1.33	-714.878
13:35:07.472	1.331	-714.008
13:35:07.473	1.332	-713.063
13:35:07.474	1.333	-712.07
13:35:07.475	1.334	-711.057
13:35:07.476	1.335	-710.053
13:35:07.477	1.336	-709.091
13:35:07.478	1.337	-708.202
13:35:07.479	1.338	-707.41
13:35:07.480	1.339	-706.727
13:35:07.481	1.34	-706.159
13:35:07.482	1.341	-705.711
13:35:07.483	1.342	-705.385
13:35:07.484	1.343	-705.17
13:35:07.485	1.344	-705.047
13:35:07.486	1.345	-704.991
13:35:07.487	1.346	-704.971
13:35:07.488	1.347	-704.962
13:35:07.489	1.348	-704.947
13:35:07.490	1.349	-704.919
13:35:07.491	1.35	-704.881
13:35:07.492	1.351	-704.836
13:35:07.493	1.352	-704.793
13:35:07.494	1.353	-704.758
13:35:07.495	1.354	-704.734
13:35:07.496	1.355	-704.716
13:35:07.497	1.356	-704.684
13:35:07.498	1.357	-704.615
13:35:07.499	1.358	-704.489
13:35:07.500	1.359	-704.289
13:35:07.501	1.36	-704.003
13:35:07.502	1.361	-703.619
13:35:07.503	1.362	-703.135
13:35:07.504	1.363	-702.549
13:35:07.505	1.364	-701.869
13:35:07.506	1.365	-701.105
13:35:07.507	1.366	-700.278
13:35:07.508	1.367	-699.42
13:35:07.509	1.368	-698.568
13:35:07.510	1.369	-697.761
13:35:07.511	1.37	-697.024
13:35:07.512	1.371	-696.371
13:35:07.513	1.372	-695.804
13:35:07.514	1.373	-695.315
13:35:07.515	1.374	-694.898
13:35:07.516	1.375	-694.547
13:35:07.517	1.376	-694.26
13:35:07.518	1.377	-694.035
13:35:07.519	1.378	-693.875
13:35:07.520	1.379	-693.776
13:35:07.521	1.38	-693.733
13:35:07.522	1.381	-693.735
13:35:07.523	1.382	-693.773
13:35:07.524	1.383	-693.84
13:35:07.525	1.384	-693.933
13:35:07.526	1.385	-694.048
13:35:07.527	1.386	-694.184
13:35:07.528	1.387	-694.339
13:35:07.529	1.388	-694.515
13:35:07.530	1.389	-694.713
13:35:07.531	1.39	-694.936
13:35:07.532	1.391	-695.183
13:35:07.533	1.392	-695.458
13:35:07.534	1.393	-695.769
13:35:07.535	1.394	-696.116
13:35:07.536	1.395	-696.494
13:35:07.537	1.396	-696.893
13:35:07.538	1.397	-697.302
13:35:07.539	1.398	-697.711
13:35:07.540	1.399	-698.113
13:35:07.541	1.4	-698.507
13:35:07.542	1.401	-698.89
13:35:07.543	1.402	-699.258
13:35:07.544	1.403	-699.597
13:35:07.545	1.404	-699.895
13:35:07.546	1.405	-700.136
13:35:07.547	1.406	-700.308
13:35:07.548	1.407	-700.401
13:35:07.549	1.408	-700.409
13:35:07.550	1.409	-700.332
13:35:07.551	1.41	-700.172
13:35:07.552	1.411	-699.938
13:35:07.553	1.412	-699.64
13:35:07.554	1.413	-699.284
13:35:07.555	1.414	-698.878
13:35:07.556	1.415	-698.426
13:35:07.557	1.416	-697.941
13:35:07.558	1.417	-697.438
13:35:07.559	1.418	-696.93
13:35:07.560	1.419	-696.429
13:35:07.561	1.42	-695.934
13:35:07.562	1.421	-695.441
13:35:07.563	1.422	-694.95
13:35:07.564	1.423	-694.472
13:35:07.565	1.424	-694.027
13:35:07.566	1.425	-693.641
13:35:07.567	1.426	-693.333
13:35:07.568	1.427	-693.12
13:35:07.569	1.428	-693.009
13:35:07.570	1.429	-693.001
13:35:07.571	1.43	-693.087
13:35:07.572	1.431	-693.251
13:35:07.573	1.432	-693.471
13:35:07.574	1.433	-693.721
13:35:07.575	1.434	-693.968
13:35:07.576	1.435	-694.174
13:35:07.577	1.436	-694.298
13:35:07.578	1.437	-694.299
13:35:07.579	1.438	-694.143
13:35:07.580	1.439	-693.802
13:35:07.581	1.44	-693.25
13:35:07.582	1.441	-692.464
13:35:07.583	1.442	-691.435
13:35:07.584	1.443	-690.172
13:35:07.585	1.444	-688.697
13:35:07.586	1.445	-687.043
13:35:07.587	1.446	-685.253
13:35:07.588	1.447	-683.376
13:35:07.589	1.448	-681.46
13:35:07.590	1.449	-679.552
13:35:07.591	1.45	-677.689
13:35:07.592	1.451	-675.906
13:35:07.593	1.452	-674.24
13:35:07.594	1.453	-672.724
13:35:07.595	1.454	-671.385
13:35:07.596	1.455	-670.236
13:35:07.597	1.456	-669.283
13:35:07.598	1.457	-668.522
13:35:07.599	1.458	-667.942
13:35:07.600	1.459	-667.528
13:35:07.601	1.46	-667.265
13:35:07.602	1.461	-667.138
13:35:07.603	1.462	-667.126
13:35:07.604	1.463	-667.19
13:35:07.605	1.464	-667.274
13:35:07.606	1.465	-667.311
13:35:07.607	1.466	-667.239
13:35:07.608	1.467	-666.999
13:35:07.609	1.468	-666.55
13:35:07.610	1.469	-665.86
13:35:07.611	1.47	-664.917
13:35:07.612	1.471	-663.722
13:35:07.613	1.472	-662.287
13:35:07.614	1.473	-660.634
13:35:07.615	1.474	-658.797
13:35:07.616	1.475	-656.815
13:35:07.617	1.476	-654.722
13:35:07.618	1.477	-652.54
13:35:07.619	1.478	-650.286
13:35:07.620	1.479	-647.971
13:35:07.621	1.48	-645.61
13:35:07.622	1.481	-643.215
13:35:07.623	1.482	-640.79
13:35:07.624	1.483	-638.333
13:35:07.625	1.484	-635.847
13:35:07.626	1.485	-633.337
13:35:07.627	1.486	-630.816
13:35:07.628	1.487	-628.304
13:35:07.629	1.488	-625.825
13:35:07.630	1.489	-623.401
13:35:07.631	1.49	-621.05
13:35:07.632	1.491	-618.782
13:35:07.633	1.492	-616.596
13:35:07.634	1.493	-614.485
13:35:07.635	1.494	-612.443
13:35:07.636	1.495	-610.47
13:35:07.637	1.496	-608.572
13:35:07.638	1.497	-606.759
13:35:07.639	1.498	-605.045
13:35:07.640	1.499	-603.444
13:35:07.641	1.5	-601.972
13:35:07.642	1.501	-600.644
13:35:07.643	1.502	-599.477
13:35:07.644	1.503	-598.487
13:35:07.645	1.504	-597.689
13:35:07.646	1.505	-597.1
13:35:07.647	1.506	-596.737
13:35:07.648	1.507	-596.617
13:35:07.649	1.508	-596.752
13:35:07.650	1.509	-597.151
13:35:07.651	1.51	-597.82
13:35:07.652	1.511	-598.764
13:35:07.653	1.512	-599.994
13:35:07.654	1.513	-601.519
13:35:07.655	1.514	-603.349
13:35:07.656	1.515	-605.483
13:35:07.657	1.516	-607.906
13:35:07.658	1.517	-610.584
13:35:07.659	1.518	-613.473
13:35:07.660	1.519	-616.527
13:35:07.661	1.52	-619.696
13:35:07.662	1.521	-622.93
13:35:07.663	1.522	-626.174
13:35:07.664	1.523	-629.38
13:35:07.665	1.524	-632.509
13:35:07.666	1.525	-635.538
13:35:07.667	1.526	-638.452
13:35:07.668	1.527	-641.241
13:35:07.669	1.528	-643.896
13:35:07.670	1.529	-646.408
13:35:07.671	1.53	-648.77
13:35:07.672	1.531	-650.979
13:35:07.673	1.532	-653.038
13:35:07.674	1.533	-654.951
13:35:07.675	1.534	-656.723
13:35:07.676	1.535	-658.357
13:35:07.677	1.536	-659.853
13:35:07.678	1.537	-661.206
13:35:07.679	1.538	-662.412
13:35:07.680	1.539	-663.474
13:35:07.681	1.54	-664.398
13:35:07.682	1.541	-665.196
13:35:07.683	1.542	-665.885
13:35:07.684	1.543	-666.487
13:35:07.685	1.544	-667.025
13:35:07.686	1.545	-667.512
13:35:07.687	1.546	-667.95
13:35:07.688	1.547	-668.326
13:35:07.689	1.548	-668.636
13:35:07.690	1.549	-668.892
13:35:07.691	1.55	-669.122
13:35:07.692	1.551	-669.359
13:35:07.693	1.552	-669.637
13:35:07.694	1.553	-669.98
13:35:07.695	1.554	-670.405
13:35:07.696	1.555	-670.908
13:35:07.697	1.556	-671.47
13:35:07.698	1.557	-672.064
13:35:07.699	1.558	-672.666
13:35:07.700	1.559	-673.257
13:35:07.701	1.56	-673.823
13:35:07.702	1.561	-674.354
13:35:07.703	1.562	-674.847
13:35:07.704	1.563	-675.304
13:35:07.705	1.564	-675.724
13:35:07.706	1.565	-676.098
13:35:07.707	1.566	-676.406
13:35:07.708	1.567	-676.636
13:35:07.709	1.568	-676.784
13:35:07.710	1.569	-676.856
13:35:07.711	1.57	-676.853
13:35:07.712	1.571	-676.775
13:35:07.713	1.572	-676.616
13:35:07.714	1.573	-676.373
13:35:07.715	1.574	-676.048
13:35:07.716	1.575	-675.645
13:35:07.717	1.576	-675.172
13:35:07.718	1.577	-674.637
13:35:07.719	1.578	-674.049
13:35:07.720	1.579	-673.42
13:35:07.721	1.58	-672.756
13:35:07.722	1.581	-672.06
13:35:07.723	1.582	-671.327
13:35:07.724	1.583	-670.561
13:35:07.725	1.584	-669.773
13:35:07.726	1.585	-668.984
13:35:07.727	1.586	-668.223
13:35:07.728	1.587	-667.521
13:35:07.729	1.588	-666.921
13:35:07.730	1.589	-666.463
13:35:07.731	1.59	-666.181
13:35:07.732	1.591	-666.097
13:35:07.733	1.592	-666.223
13:35:07.734	1.593	-666.56
13:35:07.735	1.594	-667.097
13:35:07.736	1.595	-667.815
13:35:07.737	1.596	-668.679
13:35:07.738	1.597	-669.643
13:35:07.739	1.598	-670.63
13:35:07.740	1.599	-671.543
13:35:07.741	1.6	-672.265
13:35:07.742	1.601	-672.667
13:35:07.743	1.602	-672.623
13:35:07.744	1.603	-672.012
13:35:07.745	1.604	-670.717
13:35:07.746	1.605	-668.624
13:35:07.747	1.606	-665.616
13:35:07.748	1.607	-661.567
13:35:07.749	1.608	-656.345
13:35:07.750	1.609	-649.817
13:35:07.751	1.61	-641.865
13:35:07.752	1.611	-632.393
13:35:07.753	1.612	-621.336
13:35:07.754	1.613	-608.665
13:35:07.755	1.614	-594.387
13:35:07.756	1.615	-578.547
13:35:07.757	1.616	-561.217
13:35:07.758	1.617	-542.51
13:35:07.759	1.618	-522.573
13:35:07.760	1.619	-501.582
13:35:07.761	1.62	-479.735
13:35:07.762	1.621	-457.248
13:35:07.763	1.622	-434.367
13:35:07.764	1.623	-411.366
13:35:07.765	1.624	-388.538
13:35:07.766	1.625	-366.187
13:35:07.767	1.626	-344.616
13:35:07.768	1.627	-324.12
13:35:07.769	1.628	-304.998
13:35:07.770	1.629	-287.549
13:35:07.771	1.63	-272.067
13:35:07.772	1.631	-258.828
13:35:07.773	1.632	-248.067
13:35:07.774	1.633	-239.973
13:35:07.775	1.634	-234.682
13:35:07.776	1.635	-232.279
13:35:07.777	1.636	-232.805	mark
13:35:07.778	1.637	-236.259
13:35:07.779	1.638	-242.606
13:35:07.780	1.639	-251.776
13:35:07.781	1.64	-263.665
13:35:07.782	1.641	-278.139
13:35:07.783	1.642	-295.025
13:35:07.784	1.643	-314.109
13:35:07.785	1.644	-335.132
13:35:07.786	1.645	-357.798
13:35:07.787	1.646	-381.791
13:35:07.788	1.647	-406.778
13:35:07.789	1.648	-432.421
13:35:07.790	1.649	-458.386
13:35:07.791	1.65	-484.347
13:35:07.792	1.651	-509.988
13:35:07.793	1.652	-535.009
13:35:07.794	1.653	-559.128
13:35:07.795	1.654	-582.083
13:35:07.796	1.655	-603.639
13:35:07.797	1.656	-623.598
13:35:07.798	1.657	-641.809
13:35:07.799	1.658	-658.179
13:35:07.800	1.659	-672.666
13:35:07.801	1.66	-685.268
13:35:07.802	1.661	-696.01
13:35:07.803	1.662	-704.94
13:35:07.804	1.663	-712.128
13:35:07.805	1.664	-717.661
13:35:07.806	1.665	-721.644
13:35:07.807	1.666	-724.2
13:35:07.808	1.667	-725.468
13:35:07.809	1.668	-725.592
13:35:07.810	1.669	-724.72
13:35:07.811	1.67	-722.991
13:35:07.812	1.671	-720.534
13:35:07.813	1.672	-717.465
13:35:07.814	1.673	-713.887
13:35:07.815	1.674	-709.892
13:35:07.816	1.675	-705.566
13:35:07.817	1.676	-700.984
13:35:07.818	1.677	-696.215
13:35:07.819	1.678	-691.314
13:35:07.820	1.679	-686.328
13:35:07.821	1.68	-681.301
13:35:07.822	1.681	-676.268
13:35:07.823	1.682	-671.26
13:35:07.824	1.683	-666.299
13:35:07.825	1.684	-661.399
13:35:07.826	1.685	-656.565
13:35:07.827	1.686	-651.791
13:35:07.828	1.687	-647.066
13:35:07.829	1.688	-642.38
13:35:07.830	1.689	-637.73
13:35:07.831	1.69	-633.121
13:35:07.832	1.691	-628.57
13:35:07.833	1.692	-624.094
13:35:07.834	1.693	-619.711
13:35:07.835	1.694	-615.441
13:35:07.836	1.695	-611.308
13:35:07.837	1.696	-607.333
13:35:07.838	1.697	-603.531
13:35:07.839	1.698	-599.895
13:35:07.840	1.699	-596.41
13:35:07.841	1.7	-593.058
13:35:07.842	1.701	-589.829
13:35:07.843	1.702	-586.722
13:35:07.844	1.703	-583.744
13:35:07.845	1.704	-580.904
13:35:07.846	1.705	-578.214
13:35:07.847	1.706	-575.685
13:35:07.848	1.707	-573.331
13:35:07.849	1.708	-571.163
13:35:07.850	1.709	-569.19
13:35:07.851	1.71	-567.411
13:35:07.852	1.711	-565.823
13:35:07.853	1.712	-564.413
13:35:07.854	1.713	-563.169
13:35:07.855	1.714	-562.081
13:35:07.856	1.715	-561.146
13:35:07.857	1.716	-560.366
13:35:07.858	1.717	-559.744
13:35:07.859	1.718	-559.277
13:35:07.860	1.719	-558.951
13:35:07.861	1.72	-558.736
13:35:07.862	1.721	-558.586
13:35:07.863	1.722	-558.453
13:35:07.864	1.723	-558.298
13:35:07.865	1.724	-558.085
13:35:07.866	1.725	-557.78
13:35:07.867	1.726	-557.355
13:35:07.868	1.727	-556.784
13:35:07.869	1.728	-556.048
13:35:07.870	1.729	-555.137
13:35:07.871	1.73	-554.039
13:35:07.872	1.731	-552.75
13:35:07.873	1.732	-551.27
13:35:07.874	1.733	-549.607
13:35:07.875	1.734	-547.778
13:35:07.876	1.735	-545.811
13:35:07.877	1.736	-543.737
13:35:07.878	1.737	-541.596
13:35:07.879	1.738	-539.429
13:35:07.880	1.739	-537.272
13:35:07.881	1.74	-535.155
13:35:07.882	1.741	-533.098
13:35:07.883	1.742	-531.109
13:35:07.884	1.743	-529.192
13:35:07.885	1.744	-527.341
13:35:07.886	1.745	-525.545
13:35:07.887	1.746	-523.789
13:35:07.888	1.747	-522.055
13:35:07.889	1.748	-520.328
13:35:07.890	1.749	-518.596
13:35:07.891	1.75	-516.851
13:35:07.892	1.751	-515.083
13:35:07.893	1.752	-513.282
13:35:07.894	1.753	-511.436
13:35:07.895	1.754	-509.537
13:35:07.896	1.755	-507.578
13:35:07.897	1.756	-505.562
13:35:07.898	1.757	-503.499
13:35:07.899	1.758	-501.405
13:35:07.900	1.759	-499.302
13:35:07.901	1.76	-497.211
13:35:07.902	1.761	-495.153
13:35:07.903	1.762	-493.141
13:35:07.904	1.763	-491.176
13:35:07.905	1.764	-489.244
13:35:07.906	1.765	-487.327
13:35:07.907	1.766	-485.406
13:35:07.908	1.767	-483.465
13:35:07.909	1.768	-481.492
13:35:07.910	1.769	-479.476
13:35:07.911	1.77	-477.41
13:35:07.912	1.771	-475.285
13:35:07.913	1.772	-473.098
13:35:07.914	1.773	-470.846
13:35:07.915	1.774	-468.523
13:35:07.916	1.775	-466.113
13:35:07.917	1.776	-463.599
13:35:07.918	1.777	-460.966
13:35:07.919	1.778	-458.206
13:35:07.920	1.779	-455.317
13:35:07.921	1.78	-452.299
13:35:07.922	1.781	-449.159
13:35:07.923	1.782	-445.909
13:35:07.924	1.783	-442.563
13:35:07.925	1.784	-439.134
13:35:07.926	1.785	-435.631
13:35:07.927	1.786	-432.06
13:35:07.928	1.787	-428.429
13:35:07.929	1.788	-424.744
13:35:07.930	1.789	-421.01
13:35:07.931	1.79	-417.233
13:35:07.932	1.791	-413.42
13:35:07.933	1.792	-409.577
13:35:07.934	1.793	-405.717
13:35:07.935	1.794	-401.852
13:35:07.936	1.795	-397.998
13:35:07.937	1.796	-394.172
13:35:07.938	1.797	-390.383
13:35:07.939	1.798	-386.631
13:35:07.940	1.799	-382.899
13:35:07.941	1.8	-379.167
13:35:07.942	1.801	-375.417
13:35:07.943	1.802	-371.637
13:35:07.944	1.803	-367.813
13:35:07.945	1.804	-363.936
13:35:07.946	1.805	-359.995
13:35:07.947	1.806	-355.978
13:35:07.948	1.807	-351.876
13:35:07.949	1.808	-347.679
13:35:07.950	1.809	-343.384
13:35:07.951	1.81	-338.999
13:35:07.952	1.811	-334.535
13:35:07.953	1.812	-330.005
13:35:07.954	1.813	-325.42
13:35:07.955	1.814	-320.787
13:35:07.956	1.815	-316.108
13:35:07.957	1.816	-311.379
13:35:07.958	1.817	-306.59
13:35:07.959	1.818	-301.727
13:35:07.960	1.819	-296.774
13:35:07.961	1.82	-291.723
13:35:07.962	1.821	-286.573
13:35:07.963	1.822	-281.333
13:35:07.964	1.823	-276.02
13:35:07.965	1.824	-270.654
13:35:07.966	1.825	-265.261
13:35:07.967	1.826	-259.865
13:35:07.968	1.827	-254.493
13:35:07.969	1.828	-249.177
13:35:07.970	1.829	-243.953
13:35:07.971	1.83	-238.857
13:35:07.972	1.831	-233.924
13:35:07.973	1.832	-229.176
13:35:07.974	1.833	-224.628
13:35:07.975	1.834	-220.283
13:35:07.976	1.835	-216.141
13:35:07.977	1.836	-212.206
13:35:07.978	1.837	-208.486
13:35:07.979	1.838	-204.997
13:35:07.980	1.839	-201.749
13:35:07.981	1.84	-198.738
13:35:07.982	1.841	-195.947
13:35:07.983	1.842	-193.353
13:35:07.984	1.843	-190.934
13:35:07.985	1.844	-188.68
13:35:07.986	1.845	-186.585
13:35:07.987	1.846	-184.655
13:35:07.988	1.847	-182.906
13:35:07.989	1.848	-181.363
13:35:07.990	1.849	-180.063
13:35:07.991	1.85	-179.035
13:35:07.992	1.851	-178.296
13:35:07.993	1.852	-177.849
13:35:07.994	1.853	-177.694
13:35:07.995	1.854	-177.829
13:35:07.996	1.855	-178.263
13:35:07.997	1.856	-179.003
13:35:07.998	1.857	-180.055
13:35:07.999	1.858	-181.417
13:35:08.000	1.859	-183.083
13:35:08.001	1.86	-185.041
13:35:08.002	1.861	-187.279
13:35:08.003	1.862	-189.783
13:35:08.004	1.863	-192.546
13:35:08.005	1.864	-195.564
13:35:08.006	1.865	-198.834
13:35:08.007	1.866	-202.345
13:35:08.008	1.867	-206.084
13:35:08.009	1.868	-210.037
13:35:08.010	1.869	-214.202
13:35:08.011	1.87	-218.586
13:35:08.012	1.871	-223.204
13:35:08.013	1.872	-228.068
13:35:08.014	1.873	-233.182
13:35:08.015	1.874	-238.538
13:35:08.016	1.875	-244.128
13:35:08.017	1.876	-249.946
13:35:08.018	1.877	-255.989
13:35:08.019	1.878	-262.256
13:35:08.020	1.879	-268.742
13:35:08.021	1.88	-275.435
13:35:08.022	1.881	-282.324
13:35:08.023	1.882	-289.392
13:35:08.024	1.883	-296.626
13:35:08.025	1.884	-304.011
13:35:08.026	1.885	-311.536
13:35:08.027	1.886	-319.192
13:35:08.028	1.887	-326.974
13:35:08.029	1.888	-334.876
13:35:08.030	1.889	-342.882
13:35:08.031	1.89	-350.969
13:35:08.032	1.891	-359.104
13:35:08.033	1.892	-367.253
13:35:08.034	1.893	-375.38
13:35:08.035	1.894	-383.452
13:35:08.036	1.895	-391.443
13:35:08.037	1.896	-399.326
13:35:08.038	1.897	-407.08
13:35:08.039	1.898	-414.681
13:35:08.040	1.899	-422.101
13:35:08.041	1.9	-429.304
13:35:08.042	1.901	-436.257
13:35:08.043	1.902	-442.925
13:35:08.044	1.903	-449.283
13:35:08.045	1.904	-455.318
13:35:08.046	1.905	-461.03
13:35:08.047	1.906	-466.438
13:35:08.048	1.907	-471.573
13:35:08.049	1.908	-476.476
13:35:08.050	1.909	-481.182
13:35:08.051	1.91	-485.716
13:35:08.052	1.911	-490.095
13:35:08.053	1.912	-494.326
13:35:08.054	1.913	-498.414
13:35:08.055	1.914	-502.362
13:35:08.056	1.915	-506.173
13:35:08.057	1.916	-509.849
13:35:08.058	1.917	-513.386
13:35:08.059	1.918	-516.781
13:35:08.060	1.919	-520.031
13:35:08.061	1.92	-523.143
13:35:08.062	1.921	-526.124
13:35:08.063	1.922	-528.978
13:35:08.064	1.923	-531.702
13:35:08.065	1.924	-534.285
13:35:08.066	1.925	-536.714
13:35:08.067	1.926	-538.975
13:35:08.068	1.927	-541.052
13:35:08.069	1.928	-542.938
13:35:08.070	1.929	-544.629
13:35:08.071	1.93	-546.132
13:35:08.072	1.931	-547.464
13:35:08.073	1.932	-548.651
13:35:08.074	1.933	-549.726
13:35:08.075	1.934	-550.722
13:35:08.076	1.935	-551.673
13:35:08.077	1.936	-552.605
13:35:08.078	1.937	-553.534
13:35:08.079	1.938	-554.468
13:35:08.080	1.939	-555.407
13:35:08.081	1.94	-556.344
13:35:08.082	1.941	-557.27
13:35:08.083	1.942	-558.176
13:35:08.084	1.943	-559.06
13:35:08.085	1.944	-559.927
13:35:08.086	1.945	-560.791
13:35:08.087	1.946	-561.664
13:35:08.088	1.947	-562.553
13:35:08.089	1.948	-563.452
13:35:08.090	1.949	-564.333
13:35:08.091	1.95	-565.158
13:35:08.092	1.951	-565.888
13:35:08.093	1.952	-566.496
13:35:08.094	1.953	-566.966
13:35:08.095	1.954	-567.289
13:35:08.096	1.955	-567.465
13:35:08.097	1.956	-567.5
13:35:08.098	1.957	-567.411
13:35:08.099	1.958	-567.214
13:35:08.100	1.959	-566.927
13:35:08.101	1.96	-566.558
13:35:08.102	1.961	-566.105
13:35:08.103	1.962	-565.56
13:35:08.104	1.963	-564.928
13:35:08.105	1.964	-564.229
13:35:08.106	1.965	-563.498
13:35:08.107	1.966	-562.773
13:35:08.108	1.967	-562.092
13:35:08.109	1.968	-561.493
13:35:08.110	1.969	-561.009
13:35:08.111	1.97	-560.667
13:35:08.112	1.971	-560.478
13:35:08.113	1.972	-560.443
13:35:08.114	1.973	-560.548
13:35:08.115	1.974	-560.768
13:35:08.116	1.975	-561.067
13:35:08.117	1.976	-561.409
13:35:08.118	1.977	-561.766
13:35:08.119	1.978	-562.129
13:35:08.120	1.979	-562.496
13:35:08.121	1.98	-562.872
13:35:08.122	1.981	-563.259
13:35:08.123	1.982	-563.65
13:35:08.124	1.983	-564.038
13:35:08.125	1.984	-564.421
13:35:08.126	1.985	-564.8
13:35:08.127	1.986	-565.179
13:35:08.128	1.987	-565.554
13:35:08.129	1.988	-565.921
13:35:08.130	1.989	-566.273
13:35:08.131	1.99	-566.601
13:35:08.132	1.991	-566.895
13:35:08.133	1.992	-567.144
13:35:08.134	1.993	-567.341
13:35:08.135	1.994	-567.477
13:35:08.136	1.995	-567.546
13:35:08.137	1.996	-567.537
13:35:08.138	1.997	-567.441
13:35:08.139	1.998	-567.258
13:35:08.140	1.999	-566.991
13:35:08.141	2	-566.648
13:35:08.142	2.001	-566.244
13:35:08.142	2.002	-565.793
13:35:08.144	2.003	-565.312
13:35:08.145	2.004	-564.818
13:35:08.146	2.005	-564.325
13:35:08.146	2.006	-563.843
13:35:08.148	2.007	-563.377
13:35:08.149	2.008	-562.926
13:35:08.150	2.009	-562.491
13:35:08.150	2.01	-562.069
13:35:08.152	2.011	-561.659
13:35:08.153	2.012	-561.261
13:35:08.154	2.013	-560.88
13:35:08.154	2.014	-560.521
13:35:08.156	2.015	-560.189
13:35:08.157	2.016	-559.879
13:35:08.158	2.017	-559.582
13:35:08.158	2.018	-559.286
13:35:08.160	2.019	-558.98
13:35:08.161	2.02	-558.651
13:35:08.162	2.021	-558.277
13:35:08.162	2.022	-557.824
13:35:08.164	2.023	-557.26
13:35:08.165	2.024	-556.552
13:35:08.166	2.025	-555.679
13:35:08.166	2.026	-554.633
13:35:08.168	2.027	-553.423
13:35:08.169	2.028	-552.069
13:35:08.170	2.029	-550.597
13:35:08.170	2.03	-549.032
13:35:08.172	2.031	-547.398
13:35:08.173	2.032	-545.714
13:35:08.174	2.033	-544.003
13:35:08.174	2.034	-542.282
13:35:08.176	2.035	-540.573
13:35:08.177	2.036	-538.903
13:35:08.178	2.037	-537.301
13:35:08.178	2.038	-535.8
13:35:08.180	2.039	-534.429
13:35:08.181	2.04	-533.218
13:35:08.182	2.041	-532.19
13:35:08.182	2.042	-531.369
13:35:08.184	2.043	-530.773
13:35:08.185	2.044	-530.407
13:35:08.186	2.045	-530.261
13:35:08.186	2.046	-530.309
13:35:08.188	2.047	-530.514
13:35:08.189	2.048	-530.843
13:35:08.190	2.049	-531.264
13:35:08.191	2.05	-531.746
13:35:08.192	2.051	-532.256
13:35:08.193	2.052	-532.753
13:35:08.194	2.053	-533.196
13:35:08.195	2.054	-533.548
13:35:08.196	2.055	-533.781
13:35:08.197	2.056	-533.881
13:35:08.198	2.057	-533.851
13:35:08.199	2.058	-533.699
13:35:08.200	2.059	-533.438
13:35:08.201	2.06	-533.084
13:35:08.202	2.061	-532.65
13:35:08.203	2.062	-532.154
13:35:08.204	2.063	-531.612
13:35:08.205	2.064	-531.043
13:35:08.206	2.065	-530.46
13:35:08.207	2.066	-529.873
13:35:08.208	2.067	-529.291
13:35:08.209	2.068	-528.718
13:35:08.210	2.069	-528.162
13:35:08.211	2.07	-527.634
13:35:08.212	2.071	-527.143
13:35:08.213	2.072	-526.695
13:35:08.214	2.073	-526.294
13:35:08.215	2.074	-525.938
13:35:08.216	2.075	-525.623
13:35:08.217	2.076	-525.347
13:35:08.218	2.077	-525.105
13:35:08.219	2.078	-524.893
13:35:08.220	2.079	-524.708
13:35:08.221	2.08	-524.546
13:35:08.222	2.081	-524.4
13:35:08.223	2.082	-524.263
13:35:08.224	2.083	-524.126
13:35:08.225	2.084	-523.986
13:35:08.226	2.085	-523.843
13:35:08.227	2.086	-523.705
13:35:08.228	2.087	-523.587
13:35:08.229	2.088	-523.51
13:35:08.230	2.089	-523.49
13:35:08.231	2.09	-523.53
13:35:08.232	2.091	-523.617
13:35:08.233	2.092	-523.735
13:35:08.234	2.093	-523.864
13:35:08.235	2.094	-523.996
13:35:08.236	2.095	-524.13
13:35:08.237	2.096	-524.281
13:35:08.238	2.097	-524.469
13:35:08.239	2.098	-524.722
13:35:08.240	2.099	-525.069
13:35:08.241	2.1	-525.531
13:35:08.242	2.101	-526.119
13:35:08.243	2.102	-526.829
13:35:08.244	2.103	-527.64
13:35:08.245	2.104	-528.522
13:35:08.246	2.105	-529.448
13:35:08.247	2.106	-530.398
13:35:08.248	2.107	-531.352
13:35:08.249	2.108	-532.288
13:35:08.250	2.109	-533.186
13:35:08.251	2.11	-534.033
13:35:08.252	2.111	-534.832
13:35:08.253	2.112	-535.596
13:35:08.254	2.113	-536.33
13:35:08.255	2.114	-537.029
13:35:08.256	2.115	-537.676
13:35:08.257	2.116	-538.245
13:35:08.258	2.117	-538.714
13:35:08.259	2.118	-539.069
13:35:08.260	2.119	-539.306
13:35:08.261	2.12	-539.428
13:35:08.262	2.121	-539.444
13:35:08.263	2.122	-539.368
13:35:08.264	2.123	-539.215
13:35:08.265	2.124	-539.003
13:35:08.266	2.125	-538.755
13:35:08.267	2.126	-538.498
13:35:08.268	2.127	-538.256
13:35:08.269	2.128	-538.053
13:35:08.270	2.129	-537.908
13:35:08.271	2.13	-537.827
13:35:08.272	2.131	-537.805
13:35:08.273	2.132	-537.825
13:35:08.274	2.133	-537.865
13:35:08.275	2.134	-537.901
13:35:08.276	2.135	-537.91
13:35:08.277	2.136	-537.875
13:35:08.278	2.137	-537.788
13:35:08.279	2.138	-537.648
13:35:08.280	2.139	-537.459
13:35:08.281	2.14	-537.235
13:35:08.282	2.141	-536.989
13:35:08.283	2.142	-536.734
13:35:08.284	2.143	-536.473
13:35:08.285	2.144	-536.204
13:35:08.286	2.145	-535.914
13:35:08.287	2.146	-535.58
13:35:08.288	2.147	-535.178
13:35:08.289	2.148	-534.685
13:35:08.290	2.149	-534.084
13:35:08.291	2.15	-533.366
13:35:08.292	2.151	-532.519
13:35:08.293	2.152	-531.538
13:35:08.294	2.153	-530.423
13:35:08.295	2.154	-529.186
13:35:08.296	2.155	-527.849
13:35:08.297	2.156	-526.443
13:35:08.298	2.157	-525.003
13:35:08.299	2.158	-523.568
13:35:08.300	2.159	-522.18
13:35:08.301	2.16	-520.876
13:35:08.302	2.161	-519.685
13:35:08.303	2.162	-518.619
13:35:08.304	2.163	-517.681
13:35:08.305	2.164	-516.874
13:35:08.306	2.165	-516.202
13:35:08.307	2.166	-515.668
13:35:08.308	2.167	-515.269
13:35:08.309	2.168	-514.991
13:35:08.310	2.169	-514.814
13:35:08.311	2.17	-514.719
13:35:08.312	2.171	-514.689
13:35:08.313	2.172	-514.712
13:35:08.314	2.173	-514.777
13:35:08.315	2.174	-514.864
13:35:08.316	2.175	-514.948
13:35:08.317	2.176	-515.008
13:35:08.318	2.177	-515.032
13:35:08.319	2.178	-515.023
13:35:08.320	2.179	-514.99
13:35:08.321	2.18	-514.952
13:35:08.322	2.181	-514.926
13:35:08.323	2.182	-514.925
13:35:08.324	2.183	-514.953
13:35:08.325	2.184	-515.001
13:35:08.326	2.185	-515.055
13:35:08.327	2.186	-515.101
13:35:08.328	2.187	-515.136
13:35:08.329	2.188	-515.162
13:35:08.330	2.189	-515.185
13:35:08.331	2.19	-515.203
13:35:08.332	2.191	-515.209
13:35:08.333	2.192	-515.19
13:35:08.334	2.193	-515.135
13:35:08.335	2.194	-515.039
13:35:08.336	2.195	-514.901
13:35:08.337	2.196	-514.717
13:35:08.338	2.197	-514.477
13:35:08.339	2.198	-514.169
13:35:08.340	2.199	-513.785
13:35:08.341	2.2	-513.32
13:35:08.342	2.201	-512.782
13:35:08.343	2.202	-512.188
13:35:08.344	2.203	-511.56
13:35:08.345	2.204	-510.92
13:35:08.346	2.205	-510.284
13:35:08.347	2.206	-509.664
13:35:08.348	2.207	-509.077
13:35:08.349	2.208	-508.544
13:35:08.350	2.209	-508.085
13:35:08.351	2.21	-507.708
13:35:08.352	2.211	-507.4
13:35:08.353	2.212	-507.131
13:35:08.354	2.213	-506.86
13:35:08.355	2.214	-506.549
13:35:08.356	2.215	-506.166
13:35:08.357	2.216	-505.687
13:35:08.358	2.217	-505.096
13:35:08.359	2.218	-504.376
13:35:08.360	2.219	-503.511
13:35:08.361	2.22	-502.494
13:35:08.362	2.221	-501.32
13:35:08.363	2.222	-499.988
13:35:08.364	2.223	-498.497
13:35:08.365	2.224	-496.847
13:35:08.366	2.225	-495.042
13:35:08.367	2.226	-493.1
13:35:08.368	2.227	-491.043
13:35:08.369	2.228	-488.906
13:35:08.370	2.229	-486.73
13:35:08.371	2.23	-484.554
13:35:08.372	2.231	-482.413
13:35:08.373	2.232	-480.334
13:35:08.374	2.233	-478.341
13:35:08.375	2.234	-476.454
13:35:08.376	2.235	-474.69
13:35:08.377	2.236	-473.06
13:35:08.378	2.237	-471.57
13:35:08.379	2.238	-470.225
13:35:08.380	2.239	-469.025
13:35:08.381	2.24	-467.966
13:35:08.382	2.241	-467.038
13:35:08.383	2.242	-466.225
13:35:08.384	2.243	-465.505
13:35:08.385	2.244	-464.851
13:35:08.386	2.245	-464.238
13:35:08.387	2.246	-463.639
13:35:08.388	2.247	-463.031
13:35:08.389	2.248	-462.398
13:35:08.390	2.249	-461.727
13:35:08.391	2.25	-461.01
13:35:08.392	2.251	-460.249
13:35:08.393	2.252	-459.452
13:35:08.394	2.253	-458.639
13:35:08.395	2.254	-457.837
13:35:08.396	2.255	-457.077
13:35:08.397	2.256	-456.395
13:35:08.398	2.257	-455.822
13:35:08.399	2.258	-455.387
13:35:08.400	2.259	-455.115
13:35:08.401	2.26	-455.021
13:35:08.402	2.261	-455.114
13:35:08.403	2.262	-455.401
13:35:08.404	2.263	-455.885
13:35:08.405	2.264	-456.571
13:35:08.406	2.265	-457.463
13:35:08.407	2.266	-458.563
13:35:08.408	2.267	-459.865
13:35:08.409	2.268	-461.353
13:35:08.410	2.269	-463.008
13:35:08.411	2.27	-464.811
13:35:08.412	2.271	-466.748
13:35:08.413	2.272	-468.807
13:35:08.414	2.273	-470.978
13:35:08.415	2.274	-473.244
13:35:08.416	2.275	-475.585
13:35:08.417	2.276	-477.975
13:35:08.418	2.277	-480.382
13:35:08.419	2.278	-482.777
13:35:08.420	2.279	-485.138
13:35:08.421	2.28	-487.453
13:35:08.422	2.281	-489.714
13:35:08.423	2.282	-491.918
13:35:08.424	2.283	-494.064
13:35:08.425	2.284	-496.15
13:35:08.426	2.285	-498.178
13:35:08.427	2.286	-500.151
13:35:08.428	2.287	-502.077
13:35:08.429	2.288	-503.966
13:35:08.430	2.289	-505.827
13:35:08.431	2.29	-507.665
13:35:08.432	2.291	-509.48
13:35:08.433	2.292	-511.271
13:35:08.434	2.293	-513.032
13:35:08.435	2.294	-514.759
13:35:08.436	2.295	-516.445
13:35:08.437	2.296	-518.078
13:35:08.438	2.297	-519.642
13:35:08.439	2.298	-521.113
13:35:08.440	2.299	-522.474
13:35:08.441	2.3	-523.71
13:35:08.442	2.301	-524.817
13:35:08.443	2.302	-525.793
13:35:08.444	2.303	-526.629
13:35:08.445	2.304	-527.32
13:35:08.446	2.305	-527.86
13:35:08.447	2.306	-528.25
13:35:08.448	2.307	-528.504
13:35:08.449	2.308	-528.641
13:35:08.450	2.309	-528.682
13:35:08.451	2.31	-528.641
13:35:08.452	2.311	-528.53
13:35:08.453	2.312	-528.365
13:35:08.454	2.313	-528.166
13:35:08.455	2.314	-527.959
13:35:08.456	2.315	-527.772
13:35:08.457	2.316	-527.627
13:35:08.458	2.317	-527.533
13:35:08.459	2.318	-527.488
13:35:08.460	2.319	-527.488
13:35:08.461	2.32	-527.526
13:35:08.462	2.321	-527.596
13:35:08.463	2.322	-527.684
13:35:08.464	2.323	-527.768
13:35:08.465	2.324	-527.829
13:35:08.466	2.325	-527.853
13:35:08.467	2.326	-527.839
13:35:08.468	2.327	-527.797
13:35:08.469	2.328	-527.744
13:35:08.470	2.329	-527.693
13:35:08.471	2.33	-527.647
13:35:08.472	2.331	-527.604
13:35:08.473	2.332	-527.555
13:35:08.474	2.333	-527.492
13:35:08.475	2.334	-527.405
13:35:08.476	2.335	-527.279
13:35:08.477	2.336	-527.097
13:35:08.478	2.337	-526.843
13:35:08.479	2.338	-526.5
13:35:08.480	2.339	-526.054
13:35:08.481	2.34	-525.493
13:35:08.482	2.341	-524.809
13:35:08.483	2.342	-523.998
13:35:08.484	2.343	-523.06
13:35:08.485	2.344	-522.004
13:35:08.486	2.345	-520.854
13:35:08.487	2.346	-519.641
13:35:08.488	2.347	-518.409
13:35:08.489	2.348	-517.197
13:35:08.490	2.349	-516.042
13:35:08.491	2.35	-514.956
13:35:08.492	2.351	-513.923
13:35:08.493	2.352	-512.899
13:35:08.494	2.353	-511.826
13:35:08.495	2.354	-510.637
13:35:08.496	2.355	-509.254
13:35:08.497	2.356	-507.585
13:35:08.498	2.357	-505.518
13:35:08.499	2.358	-502.929
13:35:08.500	2.359	-499.687
13:35:08.501	2.36	-495.663
13:35:08.502	2.361	-490.731
13:35:08.503	2.362	-484.771
13:35:08.504	2.363	-477.67
13:35:08.505	2.364	-469.332
13:35:08.506	2.365	-459.682
13:35:08.507	2.366	-448.673
13:35:08.508	2.367	-436.288
13:35:08.509	2.368	-422.548
13:35:08.510	2.369	-407.507
13:35:08.511	2.37	-391.243
13:35:08.512	2.371	-373.847
13:35:08.513	2.372	-355.42
13:35:08.514	2.373	-336.079
13:35:08.515	2.374	-315.964
13:35:08.516	2.375	-295.251
13:35:08.517	2.376	-274.147
13:35:08.518	2.377	-252.888
13:35:08.519	2.378	-231.725
13:35:08.520	2.379	-210.921
13:35:08.521	2.38	-190.753
13:35:08.522	2.381	-171.506
13:35:08.523	2.382	-153.479
13:35:08.524	2.383	-136.97
13:35:08.525	2.384	-122.269
13:35:08.526	2.385	-109.644
13:35:08.527	2.386	-99.3246
13:35:08.528	2.387	-91.5
13:35:08.529	2.388	-86.3099
13:35:08.530	2.389	-83.8471
13:35:08.531	2.39	-84.1588	mark
13:35:08.532	2.391	-87.2499
13:35:08.533	2.392	-93.0879
13:35:08.534	2.393	-101.607
13:35:08.535	2.394	-112.715
13:35:08.536	2.395	-126.289
13:35:08.537	2.396	-142.179
13:35:08.538	2.397	-160.203
13:35:08.539	2.398	-180.148
13:35:08.540	2.399	-201.77
13:35:08.541	2.4	-224.799
13:35:08.542	2.401	-248.945
13:35:08.543	2.402	-273.906
13:35:08.544	2.403	-299.365
13:35:08.545	2.404	-325
13:35:08.546	2.405	-350.492
13:35:08.547	2.406	-375.539
13:35:08.548	2.407	-399.863
13:35:08.549	2.408	-423.212
13:35:08.550	2.409	-445.363
13:35:08.551	2.41	-466.12
13:35:08.552	2.411	-485.325
13:35:08.553	2.412	-502.86
13:35:08.554	2.413	-518.644
13:35:08.555	2.414	-532.627
13:35:08.556	2.415	-544.793
13:35:08.557	2.416	-555.155
13:35:08.558	2.417	-563.749
13:35:08.559	2.418	-570.629
13:35:08.560	2.419	-575.86
13:35:08.561	2.42	-579.522
13:35:08.562	2.421	-581.705
13:35:08.563	2.422	-582.514
13:35:08.564	2.423	-582.064
13:35:08.565	2.424	-580.475
13:35:08.566	2.425	-577.872
13:35:08.567	2.426	-574.385
13:35:08.568	2.427	-570.146
13:35:08.569	2.428	-565.29
13:35:08.570	2.429	-559.954
13:35:08.571	2.43	-554.27
13:35:08.572	2.431	-548.348
13:35:08.573	2.432	-542.269
13:35:08.574	2.433	-536.083
13:35:08.575	2.434	-529.828
13:35:08.576	2.435	-523.543
13:35:08.577	2.436	-517.269
13:35:08.578	2.437	-511.053
13:35:08.579	2.438	-504.946
13:35:08.580	2.439	-499.006
13:35:08.581	2.44	-493.292
13:35:08.582	2.441	-487.862
13:35:08.583	2.442	-482.762
13:35:08.584	2.443	-478.024
13:35:08.585	2.444	-473.669
13:35:08.586	2.445	-469.702
13:35:08.587	2.446	-466.123
13:35:08.588	2.447	-462.915
13:35:08.589	2.448	-460.054
13:35:08.590	2.449	-457.507
13:35:08.591	2.45	-455.237
13:35:08.592	2.451	-453.212
13:35:08.593	2.452	-451.4
13:35:08.594	2.453	-449.769
13:35:08.595	2.454	-448.284
13:35:08.596	2.455	-446.908
13:35:08.597	2.456	-445.608
13:35:08.598	2.457	-444.356
13:35:08.599	2.458	-443.137
13:35:08.600	2.459	-441.949
13:35:08.601	2.46	-440.787
13:35:08.602	2.461	-439.644
13:35:08.603	2.462	-438.502
13:35:08.604	2.463	-437.34
13:35:08.605	2.464	-436.141
13:35:08.606	2.465	-434.905
13:35:08.607	2.466	-433.638
13:35:08.608	2.467	-432.352
13:35:08.609	2.468	-431.05
13:35:08.610	2.469	-429.731
13:35:08.611	2.47	-428.392
13:35:08.612	2.471	-427.031
13:35:08.613	2.472	-425.642
13:35:08.614	2.473	-424.222
13:35:08.615	2.474	-422.773
13:35:08.616	2.475	-421.299
13:35:08.617	2.476	-419.804
13:35:08.618	2.477	-418.29
13:35:08.619	2.478	-416.761
13:35:08.620	2.479	-415.219
13:35:08.621	2.48	-413.669
13:35:08.622	2.481	-412.122
13:35:08.623	2.482	-410.591
13:35:08.624	2.483	-409.096
13:35:08.625	2.484	-407.654
13:35:08.626	2.485	-406.278
13:35:08.627	2.486	-404.972
13:35:08.628	2.487	-403.732
13:35:08.629	2.488	-402.552
13:35:08.630	2.489	-401.43
13:35:08.631	2.49	-400.369
13:35:08.632	2.491	-399.376
13:35:08.633	2.492	-398.459
13:35:08.634	2.493	-397.613
13:35:08.635	2.494	-396.824
13:35:08.636	2.495	-396.069
13:35:08.637	2.496	-395.324
13:35:08.638	2.497	-394.565
13:35:08.639	2.498	-393.769
13:35:08.640	2.499	-392.911
13:35:08.641	2.5	-391.968
13:35:08.642	2.501	-390.917
13:35:08.643	2.502	-389.746
13:35:08.644	2.503	-388.447
13:35:08.645	2.504	-387.027
13:35:08.646	2.505	-385.501
13:35:08.647	2.506	-383.886
13:35:08.648	2.507	-382.203
13:35:08.649	2.508	-380.473
13:35:08.650	2.509	-378.719
13:35:08.651	2.51	-376.96
13:35:08.652	2.511	-375.206
13:35:08.653	2.512	-373.456
13:35:08.654	2.513	-371.704
13:35:08.655	2.514	-369.939
13:35:08.656	2.515	-368.152
13:35:08.657	2.516	-366.332
13:35:08.658	2.517	-364.474
13:35:08.659	2.518	-362.578
13:35:08.660	2.519	-360.643
13:35:08.661	2.52	-358.665
13:35:08.662	2.521	-356.637
13:35:08.663	2.522	-354.551
13:35:08.664	2.523	-352.39
13:35:08.665	2.524	-350.133
13:35:08.666	2.525	-347.762
13:35:08.667	2.526	-345.269
13:35:08.668	2.527	-342.661
13:35:08.669	2.528	-339.95
13:35:08.670	2.529	-337.146
13:35:08.671	2.53	-334.253
13:35:08.672	2.531	-331.271
13:35:08.673	2.532	-328.202
13:35:08.674	2.533	-325.049
13:35:08.675	2.534	-321.81
13:35:08.676	2.535	-318.485
13:35:08.677	2.536	-315.071
13:35:08.678	2.537	-311.576
13:35:08.679	2.538	-308.021
13:35:08.680	2.539	-304.438
13:35:08.681	2.54	-300.856
13:35:08.682	2.541	-297.293
13:35:08.683	2.542	-293.757
13:35:08.684	2.543	-290.251
13:35:08.685	2.544	-286.781
13:35:08.686	2.545	-283.354
13:35:08.687	2.546	-279.977
13:35:08.688	2.547	-276.652
13:35:08.689	2.548	-273.387
13:35:08.690	2.549	-270.192
13:35:08.691	2.55	-267.076
13:35:08.692	2.551	-264.039
13:35:08.693	2.552	-261.062
13:35:08.694	2.553	-258.122
13:35:08.695	2.554	-255.195
13:35:08.696	2.555	-252.264
13:35:08.697	2.556	-249.318
13:35:08.698	2.557	-246.339
13:35:08.699	2.558	-243.31
13:35:08.700	2.559	-240.211
13:35:08.701	2.56	-237.027
13:35:08.702	2.561	-233.739
13:35:08.703	2.562	-230.322
13:35:08.704	2.563	-226.751
13:35:08.705	2.564	-223.002
13:35:08.706	2.565	-219.059
13:35:08.707	2.566	-214.912
13:35:08.708	2.567	-210.56
13:35:08.709	2.568	-206.007
13:35:08.710	2.569	-201.265
13:35:08.711	2.57	-196.354
13:35:08.712	2.571	-191.305
13:35:08.713	2.572	-186.165
13:35:08.714	2.573	-180.983
13:35:08.715	2.574	-175.808
13:35:08.716	2.575	-170.676
13:35:08.717	2.576	-165.611
13:35:08.718	2.577	-160.625
13:35:08.719	2.578	-155.724
13:35:08.720	2.579	-150.903
13:35:08.721	2.58	-146.161
13:35:08.722	2.581	-141.5
13:35:08.723	2.582	-136.931
13:35:08.724	2.583	-132.47
13:35:08.725	2.584	-128.134
13:35:08.726	2.585	-123.939
13:35:08.727	2.586	-119.893
13:35:08.728	2.587	-116.002
13:35:08.729	2.588	-112.267
13:35:08.730	2.589	-108.687
13:35:08.731	2.59	-105.258
13:35:08.732	2.591	-101.982
13:35:08.733	2.592	-98.8756
13:35:08.734	2.593	-95.9649
13:35:08.735	2.594	-93.278
13:35:08.736	2.595	-90.8312
13:35:08.737	2.596	-88.6256
13:35:08.738	2.597	-86.6502
13:35:08.739	2.598	-84.8851
13:35:08.740	2.599	-83.3018
13:35:08.741	2.6	-81.8648
13:35:08.742	2.601	-80.5406
13:35:08.743	2.602	-79.3066
13:35:08.744	2.603	-78.1524
13:35:08.745	2.604	-77.0764
13:35:08.746	2.605	-76.0842
13:35:08.747	2.606	-75.1899
13:35:08.748	2.607	-74.4184
13:35:08.749	2.608	-73.8019
13:35:08.750	2.609	-73.374
13:35:08.751	2.61	-73.1624
13:35:08.752	2.611	-73.1858
13:35:08.753	2.612	-73.4542
13:35:08.754	2.613	-73.9699
13:35:08.755	2.614	-74.7308
13:35:08.756	2.615	-75.7384
13:35:08.757	2.616	-77.0088
13:35:08.758	2.617	-78.5752
13:35:08.759	2.618	-80.479
13:35:08.760	2.619	-82.7535
13:35:08.761	2.62	-85.4138
13:35:08.762	2.621	-88.4576
13:35:08.763	2.622	-91.8718
13:35:08.764	2.623	-95.6381
13:35:08.765	2.624	-99.7387
13:35:08.766	2.625	-104.16
13:35:08.767	2.626	-108.894
13:35:08.768	2.627	-113.939
13:35:08.769	2.628	-119.289
13:35:08.770	2.629	-124.935
13:35:08.771	2.63	-130.853
13:35:08.772	2.631	-137.01
13:35:08.773	2.632	-143.368
13:35:08.774	2.633	-149.89
13:35:08.775	2.634	-156.538
13:35:08.776	2.635	-163.26
13:35:08.777	2.636	-169.997
13:35:08.778	2.637	-176.684
13:35:08.779	2.638	-183.263
13:35:08.780	2.639	-189.685
13:35:08.781	2.64	-195.913
13:35:08.782	2.641	-201.926
13:35:08.783	2.642	-207.719
13:35:08.784	2.643	-213.298
13:35:08.785	2.644	-218.685
13:35:08.786	2.645	-223.905
13:35:08.787	2.646	-228.993
13:35:08.788	2.647	-233.99
13:35:08.789	2.648	-238.938
13:35:08.790	2.649	-243.871
13:35:08.791	2.65	-248.819
13:35:08.792	2.651	-253.801
13:35:08.793	2.652	-258.825
13:35:08.794	2.653	-263.89
13:35:08.795	2.654	-268.991
13:35:08.796	2.655	-274.139
13:35:08.797	2.656	-279.368
13:35:08.798	2.657	-284.723
13:35:08.799	2.658	-290.248
13:35:08.800	2.659	-295.97
13:35:08.801	2.66	-301.912
13:35:08.802	2.661	-308.087
13:35:08.803	2.662	-314.498
13:35:08.804	2.663	-321.13
13:35:08.805	2.664	-327.942
13:35:08.806	2.665	-334.872
13:35:08.807	2.666	-341.839
13:35:08.808	2.667	-348.749
13:35:08.809	2.668	-355.5
13:35:08.810	2.669	-361.99
13:35:08.811	2.67	-368.127
13:35:08.812	2.671	-373.832
13:35:08.813	2.672	-379.03
13:35:08.814	2.673	-383.644
13:35:08.815	2.674	-387.592
13:35:08.816	2.675	-390.784
13:35:08.817	2.676	-393.138
13:35:08.818	2.677	-394.587
13:35:08.819	2.678	-395.097
13:35:08.820	2.679	-394.681
13:35:08.821	2.68	-393.394
13:35:08.822	2.681	-391.34
13:35:08.823	2.682	-388.673
13:35:08.824	2.683	-385.598
13:35:08.825	2.684	-382.351
13:35:08.826	2.685	-379.149
13:35:08.827	2.686	-376.151
13:35:08.828	2.687	-373.443
13:35:08.829	2.688	-371.06
13:35:08.830	2.689	-369.012
13:35:08.831	2.69	-367.303
13:35:08.832	2.691	-365.928
13:35:08.833	2.692	-364.864
13:35:08.834	2.693	-364.081
13:35:08.835	2.694	-363.556
13:35:08.836	2.695	-363.283
13:35:08.837	2.696	-363.268
13:35:08.838	2.697	-363.51
13:35:08.839	2.698	-363.977
13:35:08.840	2.699	-364.575
13:35:08.841	2.7	-365.141
13:35:08.842	2.701	-365.448
13:35:08.843	2.702	-365.217
13:35:08.844	2.703	-364.125
13:35:08.845	2.704	-361.852
13:35:08.846	2.705	-358.139
13:35:08.847	2.706	-352.847
13:35:08.848	2.707	-346.014
13:35:08.849	2.708	-337.88
13:35:08.850	2.709	-328.893
13:35:08.851	2.71	-319.652
13:35:08.852	2.711	-310.81
13:35:08.853	2.712	-302.951
13:35:08.854	2.713	-296.503
13:35:08.855	2.714	-291.681
13:35:08.856	2.715	-288.474
13:35:08.857	2.716	-286.667
13:35:08.858	2.717	-285.901
13:35:08.859	2.718	-285.726
13:35:08.860	2.719	-285.672
13:35:08.861	2.72	-285.295
13:35:08.862	2.721	-284.211
13:35:08.863	2.722	-282.121
13:35:08.864	2.723	-278.855
13:35:08.865	2.724	-274.438
13:35:08.866	2.725	-269.164
13:35:08.867	2.726	-263.619
13:35:08.868	2.727	-258.628
13:35:08.869	2.728	-255.103
13:35:08.870	2.729	-253.846
13:35:08.871	2.73	-255.407
13:35:08.872	2.731	-260.034
13:35:08.873	2.732	-267.702
13:35:08.874	2.733	-278.173
13:35:08.875	2.734	-291.045
13:35:08.876	2.735	-305.819
13:35:08.877	2.736	-321.969
13:35:08.878	2.737	-338.97
13:35:08.879	2.738	-356.281
13:35:08.880	2.739	-373.315
13:35:08.881	2.74	-389.449
13:35:08.882	2.741	-404.121
13:35:08.883	2.742	-416.909
13:35:08.884	2.743	-427.561
13:35:08.885	2.744	-435.998
13:35:08.886	2.745	-442.289
13:35:08.887	2.746	-446.635
13:35:08.888	2.747	-449.332
13:35:08.889	2.748	-450.729
13:35:08.890	2.749	-451.184
13:35:08.891	2.75	-451.056
13:35:08.892	2.751	-450.71
13:35:08.893	2.752	-450.52
13:35:08.894	2.753	-450.848
13:35:08.895	2.754	-451.987
13:35:08.896	2.755	-454.058
13:35:08.897	2.756	-456.88
13:35:08.898	2.757	-459.905
13:35:08.899	2.758	-462.308
13:35:08.900	2.759	-463.182
13:35:08.901	2.76	-461.724
13:35:08.902	2.761	-457.409
13:35:08.903	2.762	-450.174
13:35:08.904	2.763	-440.519
13:35:08.905	2.764	-429.395
13:35:08.906	2.765	-417.918
13:35:08.907	2.766	-407.126
13:35:08.908	2.767	-397.854
13:35:08.909	2.768	-390.659
13:35:08.910	2.769	-385.76
13:35:08.911	2.77	-383.016
13:35:08.912	2.771	-382.002
13:35:08.913	2.772	-382.202
13:35:08.914	2.773	-383.262
13:35:08.915	2.774	-385.179
13:35:08.916	2.775	-388.377
13:35:08.917	2.776	-393.639
13:35:08.918	2.777	-401.903
13:35:08.919	2.778	-413.956
13:35:08.920	2.779	-430.21
13:35:08.921	2.78	-450.647
13:35:08.922	2.781	-474.837
13:35:08.923	2.782	-501.982
13:35:08.924	2.783	-531.002
13:35:08.925	2.784	-560.717
13:35:08.926	2.785	-590.073
13:35:08.927	2.786	-618.33
13:35:08.928	2.787	-645.117
13:35:08.929	2.788	-670.368
13:35:08.930	2.789	-694.207
13:35:08.931	2.79	-716.797
13:35:08.932	2.791	-738.175
13:35:08.933	2.792	-758.145
13:35:08.934	2.793	-776.307
13:35:08.935	2.794	-792.134
13:35:08.936	2.795	-805.067
13:35:08.937	2.796	-814.656
13:35:08.938	2.797	-820.721
13:35:08.939	2.798	-823.422
13:35:08.940	2.799	-823.177
13:35:08.941	2.8	-820.523
13:35:08.942	2.801	-815.997
13:35:08.943	2.802	-810.056
13:35:08.944	2.803	-803
13:35:08.945	2.804	-794.949
13:35:08.946	2.805	-785.903
13:35:08.947	2.806	-775.875
13:35:08.948	2.807	-764.992
13:35:08.949	2.808	-753.499
13:35:08.950	2.809	-741.716
13:35:08.951	2.81	-730.086
13:35:08.952	2.811	-719.307
13:35:08.953	2.812	-710.371
13:35:08.954	2.813	-704.376
13:35:08.955	2.814	-702.229
13:35:08.956	2.815	-704.436
13:35:08.957	2.816	-711.035
13:35:08.958	2.817	-721.621
13:35:08.959	2.818	-735.404
13:35:08.960	2.819	-751.31
13:35:08.961	2.82	-768.089
13:35:08.962	2.821	-784.409
13:35:08.963	2.822	-798.942
13:35:08.964	2.823	-810.497
13:35:08.965	2.824	-818.127
13:35:08.966	2.825	-821.216
13:35:08.967	2.826	-819.518
13:35:08.968	2.827	-813.17
13:35:08.969	2.828	-802.661
13:35:08.970	2.829	-788.723
13:35:08.971	2.83	-772.153
13:35:08.972	2.831	-753.65
13:35:08.973	2.832	-733.76
13:35:08.974	2.833	-712.923
13:35:08.975	2.834	-691.557
13:35:08.976	2.835	-670.037
13:35:08.977	2.836	-648.566
13:35:08.978	2.837	-627.06
13:35:08.979	2.838	-605.244
13:35:08.980	2.839	-582.972
13:35:08.981	2.84	-560.55
13:35:08.982	2.841	-538.866
13:35:08.983	2.842	-519.206
13:35:08.984	2.843	-502.869
13:35:08.985	2.844	-490.863
13:35:08.986	2.845	-483.794
13:35:08.987	2.846	-481.876
13:35:08.988	2.847	-484.935
13:35:08.989	2.848	-492.418
13:35:08.990	2.849	-503.419
13:35:08.991	2.85	-516.757
13:35:08.992	2.851	-531.119
13:35:08.993	2.852	-545.266
13:35:08.994	2.853	-558.235
13:35:08.995	2.854	-569.431
13:35:08.996	2.855	-578.58
13:35:08.997	2.856	-585.623
13:35:08.998	2.857	-590.624
13:35:08.999	2.858	-593.679
13:35:09.000	2.859	-594.824
13:35:09.001	2.86	-593.991
13:35:09.002	2.861	-591.041
13:35:09.003	2.862	-585.833
13:35:09.004	2.863	-578.273
13:35:09.005	2.864	-568.328
13:35:09.006	2.865	-556.019
13:35:09.007	2.866	-541.459
13:35:09.008	2.867	-524.921
13:35:09.009	2.868	-506.875
13:35:09.010	2.869	-487.923
13:35:09.011	2.87	-468.698
13:35:09.012	2.871	-449.769
13:35:09.013	2.872	-431.645
13:35:09.014	2.873	-414.828
13:35:09.015	2.874	-399.865
13:35:09.016	2.875	-387.383
13:35:09.017	2.876	-378.069
13:35:09.018	2.877	-372.571
13:35:09.019	2.878	-371.356
13:35:09.020	2.879	-374.587
13:35:09.021	2.88	-382.054
13:35:09.022	2.881	-393.138
13:35:09.023	2.882	-406.867
13:35:09.024	2.883	-422.06
13:35:09.025	2.884	-437.525
13:35:09.026	2.885	-452.218
13:35:09.027	2.886	-465.292
13:35:09.028	2.887	-476.073
13:35:09.029	2.888	-484.048
13:35:09.030	2.889	-488.889
13:35:09.031	2.89	-490.443
13:35:09.032	2.891	-488.767
13:35:09.033	2.892	-484.231
13:35:09.034	2.893	-477.582
13:35:09.035	2.894	-469.829
13:35:09.036	2.895	-462.003
13:35:09.037	2.896	-454.914
13:35:09.038	2.897	-449.009
13:35:09.039	2.898	-444.347
13:35:09.040	2.899	-440.666
13:35:09.041	2.9	-437.496
13:35:09.042	2.901	-434.237
13:35:09.043	2.902	-430.233
13:35:09.044	2.903	-424.886
13:35:09.045	2.904	-417.827
13:35:09.046	2.905	-409.07
13:35:09.047	2.906	-399.012
13:35:09.048	2.907	-388.293
13:35:09.049	2.908	-377.585
13:35:09.050	2.909	-367.418
13:35:09.051	2.91	-358.072
13:35:09.052	2.911	-349.537
13:35:09.053	2.912	-341.592
13:35:09.054	2.913	-333.95
13:35:09.055	2.914	-326.452
13:35:09.056	2.915	-319.218
13:35:09.057	2.916	-312.675
13:35:09.058	2.917	-307.378
13:35:09.059	2.918	-303.75
13:35:09.060	2.919	-301.88
13:35:09.061	2.92	-301.512
13:35:09.062	2.921	-302.154
13:35:09.063	2.922	-303.275
13:35:09.064	2.923	-304.475
13:35:09.065	2.924	-305.513
13:35:09.066	2.925	-306.198
13:35:09.067	2.926	-306.324
13:35:09.068	2.927	-305.711
13:35:09.069	2.928	-304.309
13:35:09.070	2.929	-302.307
13:35:09.071	2.93	-300.171
13:35:09.072	2.931	-298.569
13:35:09.073	2.932	-298.141
13:35:09.074	2.933	-299.245
13:35:09.075	2.934	-301.785
13:35:09.076	2.935	-305.205
13:35:09.077	2.936	-308.649
13:35:09.078	2.937	-311.242
13:35:09.079	2.938	-312.352
13:35:09.080	2.939	-311.707
13:35:09.081	2.94	-309.347
13:35:09.082	2.941	-305.517
13:35:09.083	2.942	-300.599
13:35:09.084	2.943	-295.072
13:35:09.085	2.944	-289.411
13:35:09.086	2.945	-283.978
13:35:09.087	2.946	-278.967
13:35:09.088	2.947	-274.458
13:35:09.089	2.948	-270.501
13:35:09.090	2.949	-267.166
13:35:09.091	2.95	-264.527
13:35:09.092	2.951	-262.676
13:35:09.093	2.952	-261.774
13:35:09.094	2.953	-262.075
13:35:09.095	2.954	-263.857
13:35:09.096	2.955	-267.323
13:35:09.097	2.956	-272.529
13:35:09.098	2.957	-279.319
13:35:09.099	2.958	-287.292
13:35:09.100	2.959	-295.818
13:35:09.101	2.96	-304.138
13:35:09.102	2.961	-311.516
13:35:09.103	2.962	-317.363
13:35:09.104	2.963	-321.231
13:35:09.105	2.964	-322.739
13:35:09.106	2.965	-321.515
13:35:09.107	2.966	-317.2
13:35:09.108	2.967	-309.499
13:35:09.109	2.968	-298.274
13:35:09.110	2.969	-283.666
13:35:09.111	2.97	-266.187
13:35:09.112	2.971	-246.667
13:35:09.113	2.972	-226.058
13:35:09.114	2.973	-205.195
13:35:09.115	2.974	-184.635
13:35:09.116	2.975	-164.603
13:35:09.117	2.976	-145.047
13:35:09.118	2.977	-125.812
13:35:09.119	2.978	-106.862
13:35:09.120	2.979	-88.3795
13:35:09.121	2.98	-70.7229
13:35:09.122	2.981	-54.3405
13:35:09.123	2.982	-39.7212
13:35:09.124	2.983	-27.3637
13:35:09.125	2.984	-17.7227
13:35:09.126	2.985	-11.1481
13:35:09.127	2.986	-7.88049
13:35:09.128	2.987	-8.12466
13:35:09.129	2.988	-12.1335
13:35:09.130	2.989	-20.2101
13:35:09.131	2.99	-32.6007
13:35:09.132	2.991	-49.3403
13:35:09.133	2.992	-70.1466
13:35:09.134	2.993	-94.4137
13:35:09.135	2.994	-121.3
13:35:09.136	2.995	-149.847
13:35:09.137	2.996	-179.048
13:35:09.138	2.997	-207.868
13:35:09.139	2.998	-235.271
13:35:09.140	2.999	-260.297
13:35:09.141	3	-282.197
13:35:09.142	3.001	-300.571
13:35:09.143	3.002	-315.414
13:35:09.144	3.003	-327.081
13:35:09.145	3.004	-336.175
13:35:09.146	3.005	-343.4
13:35:09.147	3.006	-349.419
13:35:09.148	3.007	-354.747
13:35:09.149	3.008	-359.674
13:35:09.150	3.009	-364.207
13:35:09.151	3.01	-368.07
13:35:09.152	3.011	-370.793
13:35:09.153	3.012	-371.87
13:35:09.154	3.013	-370.954
13:35:09.155	3.014	-367.972
13:35:09.156	3.015	-363.083
13:35:09.157	3.016	-356.522
13:35:09.158	3.017	-348.477
13:35:09.159	3.018	-339.045
13:35:09.160	3.019	-328.214
13:35:09.161	3.02	-315.802
13:35:09.162	3.021	-301.383
13:35:09.163	3.022	-284.288
13:35:09.164	3.023	-263.745
13:35:09.165	3.024	-239.176
13:35:09.166	3.025	-210.531
13:35:09.167	3.026	-178.44
13:35:09.168	3.027	-144.085
13:35:09.169	3.028	-108.924
13:35:09.170	3.029	-74.4364
13:35:09.171	3.03	-42.0004
13:35:09.172	3.031	-12.7989
13:35:09.173	3.032	12.3109
13:35:09.174	3.033	32.8924
13:35:09.175	3.034	48.9103
13:35:09.176	3.035	60.6548
13:35:09.177	3.036	68.6924
13:35:09.178	3.037	73.7996
13:35:09.179	3.038	76.8172
13:35:09.180	3.039	78.481
13:35:09.181	3.04	79.303
13:35:09.182	3.041	79.4892
13:35:09.183	3.042	78.8785
13:35:09.184	3.043	76.9678
13:35:09.185	3.044	73.0555
13:35:09.186	3.045	66.4293
13:35:09.187	3.046	56.5129
13:35:09.188	3.047	42.9659
13:35:09.189	3.048	25.747
13:35:09.190	3.049	5.12839
13:35:09.191	3.05	-18.3479
13:35:09.192	3.051	-43.9553
13:35:09.193	3.052	-70.8902
13:35:09.194	3.053	-98.3719
13:35:09.195	3.054	-125.697
13:35:09.196	3.055	-152.212
13:35:09.197	3.056	-177.225
13:35:09.198	3.057	-199.93
13:35:09.199	3.058	-219.421
13:35:09.200	3.059	-234.802
13:35:09.201	3.06	-245.36
13:35:09.202	3.061	-250.704
13:35:09.203	3.062	-250.81
13:35:09.204	3.063	-245.997
13:35:09.205	3.064	-236.87
13:35:09.206	3.065	-224.279
13:35:09.207	3.066	-209.299
13:35:09.208	3.067	-193.151
13:35:09.209	3.068	-177.045
13:35:09.210	3.069	-161.968
13:35:09.211	3.07	-148.565
13:35:09.212	3.071	-137.169
13:35:09.213	3.072	-127.926
13:35:09.214	3.073	-120.889
13:35:09.215	3.074	-116.005
13:35:09.216	3.075	-113.096
13:35:09.217	3.076	-111.894
13:35:09.218	3.077	-112.136
13:35:09.219	3.078	-113.627
13:35:09.220	3.079	-116.251
13:35:09.221	3.08	-119.924
13:35:09.222	3.081	-124.486
13:35:09.223	3.082	-129.584
13:35:09.224	3.083	-134.611
13:35:09.225	3.084	-138.76
13:35:09.226	3.085	-141.13
13:35:09.227	3.086	-140.859
13:35:09.228	3.087	-137.302
13:35:09.229	3.088	-130.208
13:35:09.230	3.089	-119.799
13:35:09.231	3.09	-106.718
13:35:09.232	3.091	-91.9256
13:35:09.233	3.092	-76.561
13:35:09.234	3.093	-61.7074
13:35:09.235	3.094	-48.1199
13:35:09.236	3.095	-36.1141
13:35:09.237	3.096	-25.7108
13:35:09.238	3.097	-16.9032
13:35:09.239	3.098	-9.86328
13:35:09.240	3.099	-5.01966
13:35:09.241	3.1	-3.00278
13:35:09.242	3.101	-4.46091
13:35:09.243	3.102	-9.8455
13:35:09.244	3.103	-19.3092
13:35:09.245	3.104	-32.7344
13:35:09.246	3.105	-49.8057
13:35:09.247	3.106	-70.0746
13:35:09.248	3.107	-93.0205
13:35:09.249	3.108	-118.112
13:35:09.250	3.109	-144.835
13:35:09.251	3.11	-172.678
13:35:09.252	3.111	-201.081
13:35:09.253	3.112	-229.396
13:35:09.254	3.113	-256.876
13:35:09.255	3.114	-282.705
13:35:09.256	3.115	-306.11
13:35:09.257	3.116	-326.465
13:35:09.258	3.117	-343.319
13:35:09.259	3.118	-356.306
13:35:09.260	3.119	-365.069
13:35:09.261	3.12	-369.294
13:35:09.262	3.121	-368.833
13:35:09.263	3.122	-363.817
13:35:09.264	3.123	-354.718
13:35:09.265	3.124	-342.305
13:35:09.266	3.125	-327.507
13:35:09.267	3.126	-311.234
13:35:09.268	3.127	-294.239
13:35:09.269	3.128	-277.043
13:35:09.270	3.129	-259.94
13:35:09.271	3.13	-243.052
13:35:09.272	3.131	-226.378
13:35:09.273	3.132	-209.826
13:35:09.274	3.133	-193.232
13:35:09.275	3.134	-176.421
13:35:09.276	3.135	-159.27
13:35:09.277	3.136	-141.779
13:35:09.278	3.137	-124.113
13:35:09.279	3.138	-106.598
13:35:09.280	3.139	-89.6623
13:35:09.281	3.14	-73.7229
13:35:09.282	3.141	-59.078
13:35:09.283	3.142	-45.8928
13:35:09.284	3.143	-34.2877
13:35:09.285	3.144	-24.4403
13:35:09.286	3.145	-16.6484
13:35:09.287	3.146	-11.3448
13:35:09.288	3.147	-9.023
13:35:09.289	3.148	-10.0754
13:35:09.290	3.149	-14.6181
13:35:09.291	3.15	-22.3763
13:35:09.292	3.151	-32.6666
13:35:09.293	3.152	-44.4818
13:35:09.294	3.153	-56.6565
13:35:09.295	3.154	-68.0773
13:35:09.296	3.155	-77.8709
13:35:09.297	3.156	-85.4678
13:35:09.298	3.157	-90.5076
13:35:09.299	3.158	-92.6868
13:35:09.300	3.159	-91.7037
13:35:09.301	3.16	-87.3309
13:35:09.302	3.161	-79.5079
13:35:09.303	3.162	-68.3521
13:35:09.304	3.163	-54.0894
13:35:09.305	3.164	-36.9625
13:35:09.306	3.165	-17.1905
13:35:09.307	3.166	4.97771
13:35:09.308	3.167	29.1592
13:35:09.309	3.168	54.7886
13:35:09.310	3.169	81.1575
13:35:09.311	3.17	107.488
13:35:09.312	3.171	132.979
13:35:09.313	3.172	156.814
13:35:09.314	3.173	178.199
13:35:09.315	3.174	196.463
13:35:09.316	3.175	211.168
13:35:09.317	3.176	222.162
13:35:09.318	3.177	229.546
13:35:09.319	3.178	233.574
13:35:09.320	3.179	234.551
13:35:09.321	3.18	232.8
13:35:09.322	3.181	228.691
13:35:09.323	3.182	222.64
13:35:09.324	3.183	215.018
13:35:09.325	3.184	206.03
13:35:09.326	3.185	195.679
13:35:09.327	3.186	183.859
13:35:09.328	3.187	170.524
13:35:09.329	3.188	155.851
13:35:09.330	3.189	140.332
13:35:09.331	3.19	124.759
13:35:09.332	3.191	110.047
13:35:09.333	3.192	96.9589
13:35:09.334	3.193	85.8579
13:35:09.335	3.194	76.585
13:35:09.336	3.195	68.506
13:35:09.337	3.196	60.7029
13:35:09.338	3.197	52.211
13:35:09.339	3.198	42.1846
13:35:09.340	3.199	29.977
13:35:09.341	3.2	15.1851
13:35:09.342	3.201	-2.32859
13:35:09.343	3.202	-22.4601
13:35:09.344	3.203	-44.9255
13:35:09.345	3.204	-69.3141
13:35:09.346	3.205	-95.1057
13:35:09.347	3.206	-121.677
13:35:09.348	3.207	-148.337
13:35:09.349	3.208	-174.383
13:35:09.350	3.209	-199.119
13:35:09.351	3.21	-221.833
13:35:09.352	3.211	-241.753
13:35:09.353	3.212	-258.008
13:35:09.354	3.213	-269.653
13:35:09.355	3.214	-275.756
13:35:09.356	3.215	-275.577
13:35:09.357	3.216	-268.823
13:35:09.358	3.217	-255.833
13:35:09.359	3.218	-237.507
13:35:09.360	3.219	-215.012
13:35:09.361	3.22	-189.525
13:35:09.362	3.221	-162.185
13:35:09.363	3.222	-134.161
13:35:09.364	3.223	-106.679
13:35:09.365	3.224	-80.9546
13:35:09.366	3.225	-58.1001
13:35:09.367	3.226	-39.0669
13:35:09.368	3.227	-24.5949
13:35:09.369	3.228	-15.1595
13:35:09.370	3.229	-10.9247
13:35:09.371	3.23	-11.7252
13:35:09.372	3.231	-17.0761
13:35:09.373	3.232	-26.2164
13:35:09.374	3.233	-38.1762
13:35:09.375	3.234	-51.8353
13:35:09.376	3.235	-65.9611
13:35:09.377	3.236	-79.2657
13:35:09.378	3.237	-90.5459
13:35:09.379	3.238	-98.914
13:35:09.380	3.239	-103.98
13:35:09.381	3.24	-105.862
13:35:09.382	3.241	-105.089
13:35:09.383	3.242	-102.465
13:35:09.384	3.243	-98.8444
13:35:09.385	3.244	-94.8824
13:35:09.386	3.245	-90.8876
13:35:09.387	3.246	-86.8628
13:35:09.388	3.247	-82.637
13:35:09.389	3.248	-77.9792
13:35:09.390	3.249	-72.6587
13:35:09.391	3.25	-66.4866
13:35:09.392	3.251	-59.3778
13:35:09.393	3.252	-51.4413
13:35:09.394	3.253	-43.0359
13:35:09.395	3.254	-34.7421
13:35:09.396	3.255	-27.2619
13:35:09.397	3.256	-21.2825
13:35:09.398	3.257	-17.3589
13:35:09.399	3.258	-15.8499
13:35:09.400	3.259	-16.8772
13:35:09.401	3.26	-20.3126
13:35:09.402	3.261	-25.8476
13:35:09.403	3.262	-33.1103
13:35:09.404	3.263	-41.7206
13:35:09.405	3.264	-51.2484
13:35:09.406	3.265	-61.1608
13:35:09.407	3.266	-70.8558
13:35:09.408	3.267	-79.7909
13:35:09.409	3.268	-87.6044
13:35:09.410	3.269	-94.1223
13:35:09.411	3.27	-99.2508
13:35:09.412	3.271	-102.847
13:35:09.413	3.272	-104.681
13:35:09.414	3.273	-104.529
13:35:09.415	3.274	-102.323
13:35:09.416	3.275	-98.2309
13:35:09.417	3.276	-92.6323
13:35:09.418	3.277	-86.0227
13:35:09.419	3.278	-78.9338
13:35:09.420	3.279	-71.8743
13:35:09.421	3.28	-65.2531
13:35:09.422	3.281	-59.2984
13:35:09.423	3.282	-54.0303
13:35:09.424	3.283	-49.3006
13:35:09.425	3.284	-44.8736
13:35:09.426	3.285	-40.5084
13:35:09.427	3.286	-36.0053
13:35:09.428	3.287	-31.1805
13:35:09.429	3.288	-25.7857
13:35:09.430	3.289	-19.456
13:35:09.431	3.29	-11.7425
13:35:09.432	3.291	-2.23013
13:35:09.433	3.292	9.29374
13:35:09.434	3.293	22.7047
13:35:09.435	3.294	37.5501
13:35:09.436	3.295	53.1768
13:35:09.437	3.296	68.8562
13:35:09.438	3.297	83.8497
13:35:09.439	3.298	97.45
13:35:09.440	3.299	109.015
13:35:09.441	3.3	117.981
13:35:09.442	3.301	123.881
13:35:09.443	3.302	126.377
13:35:09.444	3.303	125.313
13:35:09.445	3.304	120.74
13:35:09.446	3.305	112.92
13:35:09.447	3.306	102.312
13:35:09.448	3.307	89.5455
13:35:09.449	3.308	75.3813
13:35:09.450	3.309	60.6389
13:35:09.451	3.31	46.1167
13:35:09.452	3.311	32.5346
13:35:09.453	3.312	20.5157
13:35:09.454	3.313	10.6256
13:35:09.455	3.314	3.46029
13:35:09.456	3.315	-0.311579
13:35:09.457	3.316	-0.0307082
13:35:09.458	3.317	4.81166
13:35:09.459	3.318	14.481
13:35:09.460	3.319	28.9592
13:35:09.461	3.32	47.8923
13:35:09.462	3.321	70.5028
13:35:09.463	3.322	95.5398
13:35:09.464	3.323	121.386
13:35:09.465	3.324	146.336
13:35:09.466	3.325	168.908
13:35:09.467	3.326	188.039
13:35:09.468	3.327	203.113
13:35:09.469	3.328	213.882
13:35:09.470	3.329	220.366
13:35:09.471	3.33	222.778
13:35:09.472	3.331	221.492
13:35:09.473	3.332	216.981
13:35:09.474	3.333	209.729
13:35:09.475	3.334	200.18
13:35:09.476	3.335	188.742
13:35:09.477	3.336	175.809
13:35:09.478	3.337	161.774
13:35:09.479	3.338	147.027
13:35:09.480	3.339	131.964
13:35:09.481	3.34	116.976
13:35:09.482	3.341	102.435
13:35:09.483	3.342	88.6616
13:35:09.484	3.343	75.9264
13:35:09.485	3.344	64.4475
13:35:09.486	3.345	54.3919
13:35:09.487	3.346	45.8804
13:35:09.488	3.347	38.9968
13:35:09.489	3.348	33.7888
13:35:09.490	3.349	30.2636
13:35:09.491	3.35	28.3913
13:35:09.492	3.351	28.1205
13:35:09.493	3.352	29.3977
13:35:09.494	3.353	32.1826
13:35:09.495	3.354	36.4502
13:35:09.496	3.355	42.1849
13:35:09.497	3.356	49.372
13:35:09.498	3.357	57.9903
13:35:09.499	3.358	68.0027
13:35:09.500	3.359	79.3463
13:35:09.501	3.36	91.926
13:35:09.502	3.361	105.611
13:35:09.503	3.362	120.233
13:35:09.504	3.363	135.595
13:35:09.505	3.364	151.483
13:35:09.506	3.365	167.691
13:35:09.507	3.366	184.03
13:35:09.508	3.367	200.33
13:35:09.509	3.368	216.447
13:35:09.510	3.369	232.262
13:35:09.511	3.37	247.697
13:35:09.512	3.371	262.719
13:35:09.513	3.372	277.332
13:35:09.514	3.373	291.557
13:35:09.515	3.374	305.401
13:35:09.516	3.375	318.847
13:35:09.517	3.376	331.848
13:35:09.518	3.377	344.346
13:35:09.519	3.378	356.276
13:35:09.520	3.379	367.58
13:35:09.521	3.38	378.203
13:35:09.522	3.381	388.107
13:35:09.523	3.382	397.283
13:35:09.524	3.383	405.749
13:35:09.525	3.384	413.555
13:35:09.526	3.385	420.762
13:35:09.527	3.386	427.435
13:35:09.528	3.387	433.621
13:35:09.529	3.388	439.342
13:35:09.530	3.389	444.608
13:35:09.531	3.39	449.425
13:35:09.532	3.391	453.808
13:35:09.533	3.392	457.777
13:35:09.534	3.393	461.34
13:35:09.535	3.394	464.5
13:35:09.536	3.395	467.253
13:35:09.537	3.396	469.6
13:35:09.538	3.397	471.549
13:35:09.539	3.398	473.115
13:35:09.540	3.399	474.314
13:35:09.541	3.4	475.153
13:35:09.542	3.401	475.639
13:35:09.543	3.402	475.773
13:35:09.544	3.403	475.552
13:35:09.545	3.404	474.966
13:35:09.546	3.405	474.004
13:35:09.547	3.406	472.654
13:35:09.548	3.407	470.904
13:35:09.549	3.408	468.741
13:35:09.550	3.409	466.143
13:35:09.551	3.41	463.092
13:35:09.552	3.411	459.582
13:35:09.553	3.412	455.63
13:35:09.554	3.413	451.285
13:35:09.555	3.414	446.622
13:35:09.556	3.415	441.728
13:35:09.557	3.416	436.686
13:35:09.558	3.417	431.572
13:35:09.559	3.418	426.454
13:35:09.560	3.419	421.392
13:35:09.561	3.42	416.438
13:35:09.562	3.421	411.633
13:35:09.563	3.422	407.013
13:35:09.564	3.423	402.604
13:35:09.565	3.424	398.427
13:35:09.566	3.425	394.487
13:35:09.567	3.426	390.778
13:35:09.568	3.427	387.274
13:35:09.569	3.428	383.922
13:35:09.570	3.429	380.644
13:35:09.571	3.43	377.353
13:35:09.572	3.431	373.969
13:35:09.573	3.432	370.431
13:35:09.574	3.433	366.708
13:35:09.575	3.434	362.804
13:35:09.576	3.435	358.751
13:35:09.577	3.436	354.602
13:35:09.578	3.437	350.422
13:35:09.579	3.438	346.283
13:35:09.580	3.439	342.261
13:35:09.581	3.44	338.434
13:35:09.582	3.441	334.875
13:35:09.583	3.442	331.648
13:35:09.584	3.443	328.809
13:35:09.585	3.444	326.405
13:35:09.586	3.445	324.473
13:35:09.587	3.446	323.037
13:35:09.588	3.447	322.101
13:35:09.589	3.448	321.641
13:35:09.590	3.449	321.605
13:35:09.591	3.45	321.918
13:35:09.592	3.451	322.502
13:35:09.593	3.452	323.279
13:35:09.594	3.453	324.186
13:35:09.595	3.454	325.179
13:35:09.596	3.455	326.23
13:35:09.597	3.456	327.332
13:35:09.598	3.457	328.496
13:35:09.599	3.458	329.741
13:35:09.600	3.459	331.088
13:35:09.601	3.46	332.535
13:35:09.602	3.461	334.054
13:35:09.603	3.462	335.603
13:35:09.604	3.463	337.141
13:35:09.605	3.464	338.637
13:35:09.606	3.465	340.066
13:35:09.607	3.466	341.408
13:35:09.608	3.467	342.655
13:35:09.609	3.468	343.815
13:35:09.610	3.469	344.914
13:35:09.611	3.47	345.977
13:35:09.612	3.471	347.032
13:35:09.613	3.472	348.107
13:35:09.614	3.473	349.235
13:35:09.615	3.474	350.463
13:35:09.616	3.475	351.849
13:35:09.617	3.476	353.446
13:35:09.618	3.477	355.28
13:35:09.619	3.478	357.336
13:35:09.620	3.479	359.549
13:35:09.621	3.48	361.826
13:35:09.622	3.481	364.075
13:35:09.623	3.482	366.236
13:35:09.624	3.483	368.289
13:35:09.625	3.484	370.242
13:35:09.626	3.485	372.122
13:35:09.627	3.486	373.97
13:35:09.628	3.487	375.834
13:35:09.629	3.488	377.754
13:35:09.630	3.489	379.754
13:35:09.631	3.49	381.83
13:35:09.632	3.491	383.943
13:35:09.633	3.492	386.023
13:35:09.634	3.493	387.988
13:35:09.635	3.494	389.766
13:35:09.636	3.495	391.298
13:35:09.637	3.496	392.542
13:35:09.638	3.497	393.461
13:35:09.639	3.498	394.025
13:35:09.640	3.499	394.216
13:35:09.641	3.5	394.032
13:35:09.642	3.501	393.489
13:35:09.643	3.502	392.62
13:35:09.644	3.503	391.483
13:35:09.645	3.504	390.15
13:35:09.646	3.505	388.7
13:35:09.647	3.506	387.223
13:35:09.648	3.507	385.811
13:35:09.649	3.508	384.549
13:35:09.650	3.509	383.501
13:35:09.651	3.51	382.712
13:35:09.652	3.511	382.206
13:35:09.653	3.512	381.972
13:35:09.654	3.513	381.963
13:35:09.655	3.514	382.103
13:35:09.656	3.515	382.305
13:35:09.657	3.516	382.482
13:35:09.658	3.517	382.553
13:35:09.659	3.518	382.448
13:35:09.660	3.519	382.129
13:35:09.661	3.52	381.59
13:35:09.662	3.521	380.85
13:35:09.663	3.522	379.939
13:35:09.664	3.523	378.883
13:35:09.665	3.524	377.695
13:35:09.666	3.525	376.374
13:35:09.667	3.526	374.905
13:35:09.668	3.527	373.259
13:35:09.669	3.528	371.407
13:35:09.670	3.529	369.334
13:35:09.671	3.53	367.047
13:35:09.672	3.531	364.573
13:35:09.673	3.532	361.956
13:35:09.674	3.533	359.247
13:35:09.675	3.534	356.498
13:35:09.676	3.535	353.756
13:35:09.677	3.536	351.066
13:35:09.678	3.537	348.469
13:35:09.679	3.538	345.997
13:35:09.680	3.539	343.673
13:35:09.681	3.54	341.505
13:35:09.682	3.541	339.497
13:35:09.683	3.542	337.645
13:35:09.684	3.543	335.944
13:35:09.685	3.544	334.383
13:35:09.686	3.545	332.942
13:35:09.687	3.546	331.593
13:35:09.688	3.547	330.304
13:35:09.689	3.548	329.039
13:35:09.690	3.549	327.764
13:35:09.691	3.55	326.449
13:35:09.692	3.551	325.07
13:35:09.693	3.552	323.613
13:35:09.694	3.553	322.071
13:35:09.695	3.554	320.442
13:35:09.696	3.555	318.725
13:35:09.697	3.556	316.924
13:35:09.698	3.557	315.05
13:35:09.699	3.558	313.135
13:35:09.700	3.559	311.223
13:35:09.701	3.56	309.359
13:35:09.702	3.561	307.576
13:35:09.703	3.562	305.896
13:35:09.704	3.563	304.327
13:35:09.705	3.564	302.874
13:35:09.706	3.565	301.532
13:35:09.707	3.566	300.295
13:35:09.708	3.567	299.153
13:35:09.709	3.568	298.097
13:35:09.710	3.569	297.11
13:35:09.711	3.57	296.163
13:35:09.712	3.571	295.214
13:35:09.713	3.572	294.216
13:35:09.714	3.573	293.124
13:35:09.715	3.574	291.91
13:35:09.716	3.575	290.566
13:35:09.717	3.576	289.097
13:35:09.718	3.577	287.523
13:35:09.719	3.578	285.871
13:35:09.720	3.579	284.184
13:35:09.721	3.58	282.511
13:35:09.722	3.581	280.889
13:35:09.723	3.582	279.328
13:35:09.724	3.583	277.821
13:35:09.725	3.584	276.348
13:35:09.726	3.585	274.888
13:35:09.727	3.586	273.417
13:35:09.728	3.587	271.912
13:35:09.729	3.588	270.355
13:35:09.730	3.589	268.731
13:35:09.731	3.59	267.028
13:35:09.732	3.591	265.232
13:35:09.733	3.592	263.334
13:35:09.734	3.593	261.331
13:35:09.735	3.594	259.224
13:35:09.736	3.595	257.021
13:35:09.737	3.596	254.731
13:35:09.738	3.597	252.361
13:35:09.739	3.598	249.925
13:35:09.740	3.599	247.442
13:35:09.741	3.6	244.93
13:35:09.742	3.601	242.411
13:35:09.743	3.602	239.912
13:35:09.744	3.603	237.456
13:35:09.745	3.604	235.062
13:35:09.746	3.605	232.742
13:35:09.747	3.606	230.501
13:35:09.748	3.607	228.342
13:35:09.749	3.608	226.269
13:35:09.750	3.609	224.296
13:35:09.751	3.61	222.445
13:35:09.752	3.611	220.745
13:35:09.753	3.612	219.229
13:35:09.754	3.613	217.932
13:35:09.755	3.614	216.883
13:35:09.756	3.615	216.103
13:35:09.757	3.616	215.599
13:35:09.758	3.617	215.369
13:35:09.759	3.618	215.401
13:35:09.760	3.619	215.673
13:35:09.761	3.62	216.161
13:35:09.762	3.621	216.839
13:35:09.763	3.622	217.684
13:35:09.764	3.623	218.674
13:35:09.765	3.624	219.787
13:35:09.766	3.625	220.996
13:35:09.767	3.626	222.267
13:35:09.768	3.627	223.566
13:35:09.769	3.628	224.861
13:35:09.770	3.629	226.129
13:35:09.771	3.63	227.35
13:35:09.772	3.631	228.504
13:35:09.773	3.632	229.566
13:35:09.774	3.633	230.508
13:35:09.775	3.634	231.299
13:35:09.776	3.635	231.91
13:35:09.777	3.636	232.326
13:35:09.778	3.637	232.541
13:35:09.779	3.638	232.56
13:35:09.780	3.639	232.399
13:35:09.781	3.64	232.086
13:35:09.782	3.641	231.652
13:35:09.783	3.642	231.132
13:35:09.784	3.643	230.554
13:35:09.785	3.644	229.943
13:35:09.786	3.645	229.309
13:35:09.787	3.646	228.656
13:35:09.788	3.647	227.978
13:35:09.789	3.648	227.277
13:35:09.790	3.649	226.558
13:35:09.791	3.65	225.838
13:35:09.792	3.651	225.141
13:35:09.793	3.652	224.498
13:35:09.794	3.653	223.941
13:35:09.795	3.654	223.499
13:35:09.796	3.655	223.195
13:35:09.797	3.656	223.049
13:35:09.798	3.657	223.075
13:35:09.799	3.658	223.274
13:35:09.800	3.659	223.633
13:35:09.801	3.66	224.123
13:35:09.802	3.661	224.703
13:35:09.803	3.662	225.323
13:35:09.804	3.663	225.927
13:35:09.805	3.664	226.452
13:35:09.806	3.665	226.844
13:35:09.807	3.666	227.056
13:35:09.808	3.667	227.055
13:35:09.809	3.668	226.82
13:35:09.810	3.669	226.351
13:35:09.811	3.67	225.667
13:35:09.812	3.671	224.81
13:35:09.813	3.672	223.837
13:35:09.814	3.673	222.814
13:35:09.815	3.674	221.8
13:35:09.816	3.675	220.83
13:35:09.817	3.676	219.913
13:35:09.818	3.677	219.04
13:35:09.819	3.678	218.195
13:35:09.820	3.679	217.355
13:35:09.821	3.68	216.501
13:35:09.822	3.681	215.626
13:35:09.823	3.682	214.727
13:35:09.824	3.683	213.803
13:35:09.825	3.684	212.84
13:35:09.826	3.685	211.817
13:35:09.827	3.686	210.714
13:35:09.828	3.687	209.517
13:35:09.829	3.688	208.225
13:35:09.830	3.689	206.849
13:35:09.831	3.69	205.414
13:35:09.832	3.691	203.945
13:35:09.833	3.692	202.469
13:35:09.834	3.693	201.02
13:35:09.835	3.694	199.634
13:35:09.836	3.695	198.349
13:35:09.837	3.696	197.204
13:35:09.838	3.697	196.23
13:35:09.839	3.698	195.449
13:35:09.840	3.699	194.871
13:35:09.841	3.7	194.498
13:35:09.842	3.701	194.329
13:35:09.843	3.702	194.362
13:35:09.844	3.703	194.603
13:35:09.845	3.704	195.059
13:35:09.846	3.705	195.734
13:35:09.847	3.706	196.623
13:35:09.848	3.707	197.711
13:35:09.849	3.708	198.976
13:35:09.850	3.709	200.388
13:35:09.851	3.71	201.913
13:35:09.852	3.711	203.51
13:35:09.853	3.712	205.137
13:35:09.854	3.713	206.747
13:35:09.855	3.714	208.297
13:35:09.856	3.715	209.743
13:35:09.857	3.716	211.05
13:35:09.858	3.717	212.196
13:35:09.859	3.718	213.172
13:35:09.860	3.719	213.977
13:35:09.861	3.72	214.606
13:35:09.862	3.721	215.054
13:35:09.863	3.722	215.318
13:35:09.864	3.723	215.393
13:35:09.865	3.724	215.277
13:35:09.866	3.725	214.964
13:35:09.867	3.726	214.451
13:35:09.868	3.727	213.739
13:35:09.869	3.728	212.845
13:35:09.870	3.729	211.793
13:35:09.871	3.73	210.609
13:35:09.872	3.731	209.313
13:35:09.873	3.732	207.922
13:35:09.874	3.733	206.459
13:35:09.875	3.734	204.953
13:35:09.876	3.735	203.449
13:35:09.877	3.736	202
13:35:09.878	3.737	200.664
13:35:09.879	3.738	199.493
13:35:09.880	3.739	198.527
13:35:09.881	3.74	197.788
13:35:09.882	3.741	197.286
13:35:09.883	3.742	197.019
13:35:09.884	3.743	196.981
13:35:09.885	3.744	197.157
13:35:09.886	3.745	197.53
13:35:09.887	3.746	198.073
13:35:09.888	3.747	198.757
13:35:09.889	3.748	199.55
13:35:09.890	3.749	200.426
13:35:09.891	3.75	201.36
13:35:09.892	3.751	202.329
13:35:09.893	3.752	203.313
13:35:09.894	3.753	204.295
13:35:09.895	3.754	205.256
13:35:09.896	3.755	206.178
13:35:09.897	3.756	207.033
13:35:09.898	3.757	207.789
13:35:09.899	3.758	208.423
13:35:09.900	3.759	208.931
13:35:09.901	3.76	209.337
13:35:09.902	3.761	209.677
13:35:09.903	3.762	209.986
13:35:09.904	3.763	210.286
13:35:09.905	3.764	210.588
13:35:09.906	3.765	210.904
13:35:09.907	3.766	211.245
13:35:09.908	3.767	211.62
13:35:09.909	3.768	212.035
13:35:09.910	3.769	212.501
13:35:09.911	3.77	213.042
13:35:09.912	3.771	213.688
13:35:09.913	3.772	214.461
13:35:09.914	3.773	215.368
13:35:09.915	3.774	216.396
13:35:09.916	3.775	217.522
13:35:09.917	3.776	218.722
13:35:09.918	3.777	219.97
13:35:09.919	3.778	221.239
13:35:09.920	3.779	222.512
13:35:09.921	3.78	223.776
13:35:09.922	3.781	225.031
13:35:09.923	3.782	226.28
13:35:09.924	3.783	227.529
13:35:09.925	3.784	228.775
13:35:09.926	3.785	230.008
13:35:09.927	3.786	231.214
13:35:09.928	3.787	232.374
13:35:09.929	3.788	233.46
13:35:09.930	3.789	234.438
13:35:09.931	3.79	235.28
13:35:09.932	3.791	235.973
13:35:09.933	3.792	236.517
13:35:09.934	3.793	236.929
13:35:09.935	3.794	237.234
13:35:09.936	3.795	237.459
13:35:09.937	3.796	237.629
13:35:09.938	3.797	237.761
13:35:09.939	3.798	237.867
13:35:09.940	3.799	237.949
13:35:09.941	3.8	238.004
13:35:09.942	3.801	238.027
13:35:09.943	3.802	238.012
13:35:09.944	3.803	237.951
13:35:09.945	3.804	237.837
13:35:09.946	3.805	237.661
13:35:09.947	3.806	237.418
13:35:09.948	3.807	237.107
13:35:09.949	3.808	236.732
13:35:09.950	3.809	236.29
13:35:09.951	3.81	235.765
13:35:09.952	3.811	235.123
13:35:09.953	3.812	234.319
13:35:09.954	3.813	233.304
13:35:09.955	3.814	232.045
13:35:09.956	3.815	230.525
13:35:09.957	3.816	228.742
13:35:09.958	3.817	226.701
13:35:09.959	3.818	224.409
13:35:09.960	3.819	221.875
13:35:09.961	3.82	219.118
13:35:09.962	3.821	216.16
13:35:09.963	3.822	213.03
13:35:09.964	3.823	209.763
13:35:09.965	3.824	206.393
13:35:09.966	3.825	202.951
13:35:09.967	3.826	199.466
13:35:09.968	3.827	195.974
13:35:09.969	3.828	192.526
13:35:09.970	3.829	189.175
13:35:09.971	3.83	185.971
13:35:09.972	3.831	182.952
13:35:09.973	3.832	180.142
13:35:09.974	3.833	177.56
13:35:09.975	3.834	175.222
13:35:09.976	3.835	173.136
13:35:09.977	3.836	171.303
13:35:09.978	3.837	169.709
13:35:09.979	3.838	168.326
13:35:09.980	3.839	167.12
13:35:09.981	3.84	166.054
13:35:09.982	3.841	165.098
13:35:09.983	3.842	164.211
13:35:09.984	3.843	163.35
13:35:09.985	3.844	162.461
13:35:09.986	3.845	161.488
13:35:09.987	3.846	160.381
13:35:09.988	3.847	159.103
13:35:09.989	3.848	157.641
13:35:09.990	3.849	156.002
13:35:09.991	3.85	154.209
13:35:09.992	3.851	152.296
13:35:09.993	3.852	150.31
13:35:09.994	3.853	148.313
13:35:09.995	3.854	146.376
13:35:09.996	3.855	144.569
13:35:09.997	3.856	142.949
13:35:09.998	3.857	141.56
13:35:09.999	3.858	140.42
13:35:10.000	3.859	139.528
13:35:10.001	3.86	138.867
13:35:10.002	3.861	138.404
13:35:10.003	3.862	138.097
13:35:10.004	3.863	137.898
13:35:10.005	3.864	137.765
13:35:10.006	3.865	137.662
13:35:10.007	3.866	137.563
13:35:10.008	3.867	137.447
13:35:10.009	3.868	137.296
13:35:10.010	3.869	137.099
13:35:10.011	3.87	136.855
13:35:10.012	3.871	136.571
13:35:10.013	3.872	136.25
13:35:10.014	3.873	135.886
13:35:10.015	3.874	135.476
13:35:10.016	3.875	135.025
13:35:10.017	3.876	134.553
13:35:10.018	3.877	134.085
13:35:10.019	3.878	133.645
13:35:10.020	3.879	133.258
13:35:10.021	3.88	132.941
13:35:10.022	3.881	132.712
13:35:10.023	3.882	132.585
13:35:10.024	3.883	132.569
13:35:10.025	3.884	132.657
13:35:10.026	3.885	132.834
13:35:10.027	3.886	133.069
13:35:10.028	3.887	133.319
13:35:10.029	3.888	133.53
13:35:10.030	3.889	133.643
13:35:10.031	3.89	133.601
13:35:10.032	3.891	133.357
13:35:10.033	3.892	132.879
13:35:10.034	3.893	132.147
13:35:10.035	3.894	131.159
13:35:10.036	3.895	129.931
13:35:10.037	3.896	128.502
13:35:10.038	3.897	126.935
13:35:10.039	3.898	125.317
13:35:10.040	3.899	123.751
13:35:10.041	3.9	122.353
13:35:10.042	3.901	121.236
13:35:10.043	3.902	120.502
13:35:10.044	3.903	120.235
13:35:10.045	3.904	120.52
13:35:10.046	3.905	121.453
13:35:10.047	3.906	123.154
13:35:10.048	3.907	125.769
13:35:10.049	3.908	129.457
13:35:10.050	3.909	134.369
13:35:10.051	3.91	140.631
13:35:10.052	3.911	148.334
13:35:10.053	3.912	157.538
13:35:10.054	3.913	168.273
13:35:10.055	3.914	180.536
13:35:10.056	3.915	194.288
13:35:10.057	3.916	209.457
13:35:10.058	3.917	225.949
13:35:10.059	3.918	243.648
13:35:10.060	3.919	262.416
13:35:10.061	3.92	282.089
13:35:10.062	3.921	302.475
13:35:10.063	3.922	323.355
13:35:10.064	3.923	344.491
13:35:10.065	3.924	365.622
13:35:10.066	3.925	386.472
13:35:10.067	3.926	406.752
13:35:10.068	3.927	426.174
13:35:10.069	3.928	444.456
13:35:10.070	3.929	461.32
13:35:10.071	3.93	476.495
13:35:10.072	3.931	489.728
13:35:10.073	3.932	500.794
13:35:10.074	3.933	509.501
13:35:10.075	3.934	515.686
13:35:10.076	3.935	519.219
13:35:10.077	3.936	520.004	mark
13:35:10.078	3.937	517.985
13:35:10.079	3.938	513.147
13:35:10.080	3.939	505.51
13:35:10.081	3.94	495.125
13:35:10.082	3.941	482.077
13:35:10.083	3.942	466.494
13:35:10.084	3.943	448.547
13:35:10.085	3.944	428.455
13:35:10.086	3.945	406.481
13:35:10.087	3.946	382.929
13:35:10.088	3.947	358.136
13:35:10.089	3.948	332.457
13:35:10.090	3.949	306.257
13:35:10.091	3.95	279.888
13:35:10.092	3.951	253.686
13:35:10.093	3.952	227.967
13:35:10.094	3.953	203.025
13:35:10.095	3.954	179.124
13:35:10.096	3.955	156.493
13:35:10.097	3.956	135.323
13:35:10.098	3.957	115.759
13:35:10.099	3.958	97.9042
13:35:10.100	3.959	81.8344
13:35:10.101	3.96	67.5965
13:35:10.102	3.961	55.2121
13:35:10.103	3.962	44.6749
13:35:10.104	3.963	35.9514
13:35:10.105	3.964	28.9832
13:35:10.106	3.965	23.6906
13:35:10.107	3.966	19.9755
13:35:10.108	3.967	17.7255
13:35:10.109	3.968	16.8191
13:35:10.110	3.969	17.1305
13:35:10.111	3.97	18.531
13:35:10.112	3.971	20.8868
13:35:10.113	3.972	24.0584
13:35:10.114	3.973	27.9049
13:35:10.115	3.974	32.2886
13:35:10.116	3.975	37.0784
13:35:10.117	3.976	42.1572
13:35:10.118	3.977	47.4292
13:35:10.119	3.978	52.823
13:35:10.120	3.979	58.2899
13:35:10.121	3.98	63.7939
13:35:10.122	3.981	69.2987
13:35:10.123	3.982	74.7607
13:35:10.124	3.983	80.1322
13:35:10.125	3.984	85.3699
13:35:10.126	3.985	90.4387
13:35:10.127	3.986	95.3074
13:35:10.128	3.987	99.9433
13:35:10.129	3.988	104.312
13:35:10.130	3.989	108.38
13:35:10.131	3.99	112.122
13:35:10.132	3.991	115.523
13:35:10.133	3.992	118.576
13:35:10.134	3.993	121.286
13:35:10.135	3.994	123.66
13:35:10.136	3.995	125.712
13:35:10.137	3.996	127.462
13:35:10.138	3.997	128.94
13:35:10.139	3.998	130.186
13:35:10.140	3.999	131.242
13:35:10.141	4	132.153
13:35:10.142	4.001	132.956
13:35:10.143	4.002	133.682
13:35:10.144	4.003	134.359
13:35:10.144	4.004	135.016
13:35:10.146	4.005	135.674
13:35:10.147	4.006	136.35
13:35:10.147	4.007	137.045
13:35:10.149	4.008	137.746
13:35:10.150	4.009	138.427
13:35:10.151	4.01	139.062
13:35:10.152	4.011	139.629
13:35:10.152	4.012	140.117
13:35:10.154	4.013	140.519
13:35:10.155	4.014	140.835
13:35:10.155	4.015	141.071
13:35:10.157	4.016	141.25
13:35:10.158	4.017	141.407
13:35:10.159	4.018	141.585
13:35:10.160	4.019	141.826
13:35:10.160	4.02	142.166
13:35:10.162	4.021	142.63
13:35:10.163	4.022	143.225
13:35:10.163	4.023	143.94
13:35:10.165	4.024	144.747
13:35:10.166	4.025	145.625
13:35:10.167	4.026	146.563
13:35:10.168	4.027	147.575
13:35:10.168	4.028	148.686
13:35:10.170	4.029	149.917
13:35:10.171	4.03	151.279
13:35:10.171	4.031	152.764
13:35:10.173	4.032	154.34
13:35:10.174	4.033	155.957
13:35:10.175	4.034	157.565
13:35:10.176	4.035	159.115
13:35:10.176	4.036	160.571
13:35:10.178	4.037	161.907
13:35:10.179	4.038	163.104
13:35:10.179	4.039	164.151
13:35:10.181	4.04	165.045
13:35:10.182	4.041	165.795
13:35:10.183	4.042	166.417
13:35:10.184	4.043	166.926
13:35:10.184	4.044	167.334
13:35:10.186	4.045	167.652
13:35:10.187	4.046	167.895
13:35:10.187	4.047	168.087
13:35:10.189	4.048	168.264
13:35:10.190	4.049	168.463
13:35:10.191	4.05	168.712
13:35:10.192	4.051	169.026
13:35:10.192	4.052	169.407
13:35:10.194	4.053	169.846
13:35:10.195	4.054	170.332
13:35:10.195	4.055	170.854
13:35:10.197	4.056	171.405
13:35:10.198	4.057	171.979
13:35:10.199	4.058	172.579
13:35:10.200	4.059	173.213
13:35:10.200	4.06	173.896
13:35:10.202	4.061	174.644
13:35:10.203	4.062	175.469
13:35:10.203	4.063	176.382
13:35:10.205	4.064	177.393
13:35:10.206	4.065	178.514
13:35:10.207	4.066	179.749
13:35:10.208	4.067	181.1
13:35:10.208	4.068	182.56
13:35:10.210	4.069	184.113
13:35:10.211	4.07	185.74
13:35:10.211	4.071	187.425
13:35:10.213	4.072	189.159
13:35:10.214	4.073	190.938
13:35:10.215	4.074	192.764
13:35:10.216	4.075	194.633
13:35:10.216	4.076	196.537
13:35:10.218	4.077	198.465
13:35:10.219	4.078	200.421
13:35:10.219	4.079	202.416
13:35:10.221	4.08	204.469
13:35:10.222	4.081	206.604
13:35:10.223	4.082	208.846
13:35:10.224	4.083	211.219
13:35:10.224	4.084	213.745
13:35:10.226	4.085	216.438
13:35:10.227	4.086	219.293
13:35:10.227	4.087	222.29
13:35:10.229	4.088	225.397
13:35:10.230	4.089	228.568
13:35:10.231	4.09	231.758
13:35:10.232	4.091	234.931
13:35:10.232	4.092	238.07
13:35:10.234	4.093	241.182
13:35:10.235	4.094	244.284
13:35:10.235	4.095	247.392
13:35:10.237	4.096	250.511
13:35:10.238	4.097	253.638
13:35:10.239	4.098	256.769
13:35:10.240	4.099	259.905
13:35:10.241	4.1	263.06
13:35:10.242	4.101	266.253
13:35:10.243	4.102	269.51
13:35:10.244	4.103	272.842
13:35:10.245	4.104	276.244
13:35:10.246	4.105	279.69
13:35:10.247	4.106	283.143
13:35:10.248	4.107	286.568
13:35:10.249	4.108	289.948
13:35:10.250	4.109	293.28
13:35:10.251	4.11	296.569
13:35:10.252	4.111	299.829
13:35:10.253	4.112	303.088
13:35:10.254	4.113	306.381
13:35:10.255	4.114	309.747
13:35:10.256	4.115	313.216
13:35:10.257	4.116	316.81
13:35:10.258	4.117	320.544
13:35:10.259	4.118	324.421
13:35:10.260	4.119	328.435
13:35:10.261	4.12	332.57
13:35:10.262	4.121	336.809
13:35:10.263	4.122	341.128
13:35:10.264	4.123	345.497
13:35:10.265	4.124	349.888
13:35:10.266	4.125	354.273
13:35:10.267	4.126	358.627
13:35:10.268	4.127	362.936
13:35:10.269	4.128	367.204
13:35:10.270	4.129	371.448
13:35:10.271	4.13	375.681
13:35:10.272	4.131	379.903
13:35:10.273	4.132	384.098
13:35:10.274	4.133	388.241
13:35:10.275	4.134	392.298
13:35:10.276	4.135	396.227
13:35:10.277	4.136	399.982
13:35:10.278	4.137	403.52
13:35:10.279	4.138	406.806
13:35:10.280	4.139	409.822
13:35:10.281	4.14	412.56
13:35:10.282	4.141	415.02
13:35:10.283	4.142	417.205
13:35:10.284	4.143	419.12
13:35:10.285	4.144	420.769
13:35:10.286	4.145	422.158
13:35:10.287	4.146	423.285
13:35:10.288	4.147	424.142
13:35:10.289	4.148	424.719
13:35:10.290	4.149	425.007
13:35:10.291	4.15	425.003
13:35:10.292	4.151	424.706
13:35:10.293	4.152	424.115
13:35:10.294	4.153	423.235
13:35:10.295	4.154	422.067
13:35:10.296	4.155	420.613
13:35:10.297	4.156	418.873
13:35:10.298	4.157	416.851
13:35:10.299	4.158	414.546
13:35:10.300	4.159	411.959
13:35:10.301	4.16	409.092
13:35:10.302	4.161	405.945
13:35:10.303	4.162	402.522
13:35:10.304	4.163	398.83
13:35:10.305	4.164	394.881
13:35:10.306	4.165	390.692
13:35:10.307	4.166	386.273
13:35:10.308	4.167	381.629
13:35:10.309	4.168	376.76
13:35:10.310	4.169	371.673
13:35:10.311	4.17	366.373
13:35:10.312	4.171	360.873
13:35:10.313	4.172	355.193
13:35:10.314	4.173	349.353
13:35:10.315	4.174	343.37
13:35:10.316	4.175	337.248
13:35:10.317	4.176	330.98
13:35:10.318	4.177	324.556
13:35:10.319	4.178	317.983
13:35:10.320	4.179	311.283
13:35:10.321	4.18	304.492
13:35:10.322	4.181	297.642
13:35:10.323	4.182	290.757
13:35:10.324	4.183	283.843
13:35:10.325	4.184	276.898
13:35:10.326	4.185	269.907
13:35:10.327	4.186	262.857
13:35:10.328	4.187	255.734
13:35:10.329	4.188	248.526
13:35:10.330	4.189	241.217
13:35:10.331	4.19	233.793
13:35:10.332	4.191	226.246
13:35:10.333	4.192	218.575
13:35:10.334	4.193	210.782
13:35:10.335	4.194	202.868
13:35:10.336	4.195	194.841
13:35:10.337	4.196	186.712
13:35:10.338	4.197	178.503
13:35:10.339	4.198	170.244
13:35:10.340	4.199	161.978
13:35:10.341	4.2	153.765
13:35:10.342	4.201	145.688
13:35:10.343	4.202	137.833
13:35:10.344	4.203	130.284
13:35:10.345	4.204	123.107
13:35:10.346	4.205	116.35
13:35:10.347	4.206	110.036
13:35:10.348	4.207	104.166
13:35:10.349	4.208	98.7223
13:35:10.350	4.209	93.6764
13:35:10.351	4.21	88.9965
13:35:10.352	4.211	84.6507
13:35:10.353	4.212	80.6073
13:35:10.354	4.213	76.8362
13:35:10.355	4.214	73.309
13:35:10.356	4.215	69.9972
13:35:10.357	4.216	66.8692
13:35:10.358	4.217	63.8877
13:35:10.359	4.218	61.0087
13:35:10.360	4.219	58.1853
13:35:10.361	4.22	55.3767
13:35:10.362	4.221	52.555
13:35:10.363	4.222	49.7052
13:35:10.364	4.223	46.821
13:35:10.365	4.224	43.9001
13:35:10.366	4.225	40.9418
13:35:10.367	4.226	37.9471
13:35:10.368	4.227	34.9171
13:35:10.369	4.228	31.8515
13:35:10.370	4.229	28.7502
13:35:10.371	4.23	25.6187
13:35:10.372	4.231	22.471
13:35:10.373	4.232	19.3292
13:35:10.374	4.233	16.2233
13:35:10.375	4.234	13.1914
13:35:10.376	4.235	10.2753
13:35:10.377	4.236	7.51485
13:35:10.378	4.237	4.9418
13:35:10.379	4.238	2.57341
13:35:10.380	4.239	0.40975
13:35:10.381	4.24	-1.56226
13:35:10.382	4.241	-3.35988
13:35:10.383	4.242	-4.99832
13:35:10.384	4.243	-6.49268
13:35:10.385	4.244	-7.86533
13:35:10.386	4.245	-9.14935
13:35:10.387	4.246	-10.3838
13:35:10.388	4.247	-11.6053
13:35:10.389	4.248	-12.8398
13:35:10.390	4.249	-14.0983
13:35:10.391	4.25	-15.376
13:35:10.392	4.251	-16.6564
13:35:10.393	4.252	-17.9166
13:35:10.394	4.253	-19.1312
13:35:10.395	4.254	-20.2747
13:35:10.396	4.255	-21.3195
13:35:10.397	4.256	-22.2396
13:35:10.398	4.257	-23.0186
13:35:10.399	4.258	-23.6528
13:35:10.400	4.259	-24.1451
13:35:10.401	4.26	-24.4953
13:35:10.402	4.261	-24.6975
13:35:10.403	4.262	-24.7455
13:35:10.404	4.263	-24.6395
13:35:10.405	4.264	-24.3894
13:35:10.406	4.265	-24.015
13:35:10.407	4.266	-23.5425
13:35:10.408	4.267	-23.0006
13:35:10.409	4.268	-22.4174
13:35:10.410	4.269	-21.8186
13:35:10.411	4.27	-21.2261
13:35:10.412	4.271	-20.6566
13:35:10.413	4.272	-20.1246
13:35:10.414	4.273	-19.6494
13:35:10.415	4.274	-19.2567
13:35:10.416	4.275	-18.9739
13:35:10.417	4.276	-18.8239
13:35:10.418	4.277	-18.824
13:35:10.419	4.278	-18.9896
13:35:10.420	4.279	-19.3353
13:35:10.421	4.28	-19.8719
13:35:10.422	4.281	-20.6028
13:35:10.423	4.282	-21.5244
13:35:10.424	4.283	-22.6262
13:35:10.425	4.284	-23.8884
13:35:10.426	4.285	-25.2796
13:35:10.427	4.286	-26.7576
13:35:10.428	4.287	-28.2732
13:35:10.429	4.288	-29.7743
13:35:10.430	4.289	-31.206
13:35:10.431	4.29	-32.5163
13:35:10.432	4.291	-33.6649
13:35:10.433	4.292	-34.6273
13:35:10.434	4.293	-35.3951
13:35:10.435	4.294	-35.9718
13:35:10.436	4.295	-36.3679
13:35:10.437	4.296	-36.5959
13:35:10.438	4.297	-36.6676
13:35:10.439	4.298	-36.5942
13:35:10.440	4.299	-36.3861
13:35:10.441	4.3	-36.0528
13:35:10.442	4.301	-35.6046
13:35:10.443	4.302	-35.0581
13:35:10.444	4.303	-34.4403
13:35:10.445	4.304	-33.7895
13:35:10.446	4.305	-33.1512
13:35:10.447	4.306	-32.5709
13:35:10.448	4.307	-32.084
13:35:10.449	4.308	-31.707
13:35:10.450	4.309	-31.4371
13:35:10.451	4.31	-31.2607
13:35:10.452	4.311	-31.1638
13:35:10.453	4.312	-31.14
13:35:10.454	4.313	-31.194
13:35:10.455	4.314	-31.337
13:35:10.456	4.315	-31.5793
13:35:10.457	4.316	-31.9224
13:35:10.458	4.317	-32.3555
13:35:10.459	4.318	-32.8549
13:35:10.460	4.319	-33.386
13:35:10.461	4.32	-33.9115
13:35:10.462	4.321	-34.4015
13:35:10.463	4.322	-34.8383
13:35:10.464	4.323	-35.2128
13:35:10.465	4.324	-35.5191
13:35:10.466	4.325	-35.7534
13:35:10.467	4.326	-35.9171
13:35:10.468	4.327	-36.0182
13:35:10.469	4.328	-36.0704
13:35:10.470	4.329	-36.0903
13:35:10.471	4.33	-36.0952
13:35:10.472	4.331	-36.1003
13:35:10.473	4.332	-36.1132
13:35:10.474	4.333	-36.129
13:35:10.475	4.334	-36.1325
13:35:10.476	4.335	-36.1041
13:35:10.477	4.336	-36.0251
13:35:10.478	4.337	-35.8784
13:35:10.479	4.338	-35.652
13:35:10.480	4.339	-35.3423
13:35:10.481	4.34	-34.9573
13:35:10.482	4.341	-34.5146
13:35:10.483	4.342	-34.0375
13:35:10.484	4.343	-33.5497
13:35:10.485	4.344	-33.0723
13:35:10.486	4.345	-32.6246
13:35:10.487	4.346	-32.2286
13:35:10.488	4.347	-31.907
13:35:10.489	4.348	-31.6772
13:35:10.490	4.349	-31.5455
13:35:10.491	4.35	-31.507
13:35:10.492	4.351	-31.5511
13:35:10.493	4.352	-31.6656
13:35:10.494	4.353	-31.839
