TimeOfDay	Time	Sig
13:32:04.257	0	-250.066
13:32:04.258	0.001	-248.739
13:32:04.259	0.002	-247.554
13:32:04.260	0.003	-246.5
13:32:04.261	0.004	-245.562
13:32:04.262	0.005	-244.725
13:32:04.263	0.006	-243.969
13:32:04.264	0.007	-243.271
13:32:04.265	0.008	-242.605
13:32:04.266	0.009	-241.937
13:32:04.267	0.01	-241.231
13:32:04.268	0.011	-240.449
13:32:04.269	0.012	-239.554
13:32:04.270	0.013	-238.526
13:32:04.271	0.014	-237.361
13:32:04.272	0.015	-236.074
13:32:04.273	0.016	-234.69
13:32:04.274	0.017	-233.234
13:32:04.275	0.018	-231.728
13:32:04.276	0.019	-230.191
13:32:04.277	0.02	-228.645
13:32:04.278	0.021	-227.117
13:32:04.279	0.022	-225.637
13:32:04.280	0.023	-224.241
13:32:04.281	0.024	-222.963
13:32:04.282	0.025	-221.817
13:32:04.283	0.026	-220.79
13:32:04.284	0.027	-219.842
13:32:04.285	0.028	-218.924
13:32:04.286	0.029	-217.978
13:32:04.287	0.03	-216.951
13:32:04.288	0.031	-215.798
13:32:04.289	0.032	-214.488
13:32:04.290	0.033	-212.994
13:32:04.291	0.034	-211.302
13:32:04.292	0.035	-209.414
13:32:04.293	0.036	-207.345
13:32:04.294	0.037	-205.123
13:32:04.295	0.038	-202.778
13:32:04.296	0.039	-200.34
13:32:04.297	0.04	-197.839
13:32:04.298	0.041	-195.312
13:32:04.299	0.042	-192.803
13:32:04.300	0.043	-190.363
13:32:04.301	0.044	-188.041
13:32:04.302	0.045	-185.875
13:32:04.303	0.046	-183.879
13:32:04.304	0.047	-182.04
13:32:04.305	0.048	-180.329
13:32:04.306	0.049	-178.709
13:32:04.307	0.05	-177.135
13:32:04.308	0.051	-175.561
13:32:04.309	0.052	-173.947
13:32:04.310	0.053	-172.271
13:32:04.311	0.054	-170.522
13:32:04.312	0.055	-168.702
13:32:04.313	0.056	-166.836
13:32:04.314	0.057	-164.977
13:32:04.315	0.058	-163.194
13:32:04.316	0.059	-161.55
13:32:04.317	0.06	-160.077
13:32:04.318	0.061	-158.771
13:32:04.319	0.062	-157.597
13:32:04.320	0.063	-156.513
13:32:04.321	0.064	-155.49
13:32:04.322	0.065	-154.513
13:32:04.323	0.066	-153.581
13:32:04.324	0.067	-152.696
13:32:04.325	0.068	-151.853
13:32:04.326	0.069	-151.048
13:32:04.327	0.07	-150.276
13:32:04.328	0.071	-149.533
13:32:04.329	0.072	-148.812
13:32:04.330	0.073	-148.087
13:32:04.331	0.074	-147.309
13:32:04.332	0.075	-146.415
13:32:04.333	0.076	-145.342
13:32:04.334	0.077	-144.032
13:32:04.335	0.078	-142.443
13:32:04.336	0.079	-140.548
13:32:04.337	0.08	-138.337
13:32:04.338	0.081	-135.814
13:32:04.339	0.082	-132.99
13:32:04.340	0.083	-129.885
13:32:04.341	0.084	-126.529
13:32:04.342	0.085	-122.963
13:32:04.343	0.086	-119.232
13:32:04.344	0.087	-115.372
13:32:04.345	0.088	-111.412
13:32:04.346	0.089	-107.377
13:32:04.347	0.09	-103.293
13:32:04.348	0.091	-99.1848
13:32:04.349	0.092	-95.0727
13:32:04.350	0.093	-90.9607
13:32:04.351	0.094	-86.8366
13:32:04.352	0.095	-82.6784
13:32:04.353	0.096	-78.4663
13:32:04.354	0.097	-74.1894
13:32:04.355	0.098	-69.8484
13:32:04.356	0.099	-65.4555
13:32:04.357	0.1	-61.0323
13:32:04.358	0.101	-56.6013
13:32:04.359	0.102	-52.17
13:32:04.360	0.103	-47.7265
13:32:04.361	0.104	-43.2519
13:32:04.362	0.105	-38.7376
13:32:04.363	0.106	-34.1923
13:32:04.364	0.107	-29.6388
13:32:04.365	0.108	-25.1039
13:32:04.366	0.109	-20.6108
13:32:04.367	0.11	-16.1737
13:32:04.368	0.111	-11.7979
13:32:04.369	0.112	-7.48085
13:32:04.370	0.113	-3.21345
13:32:04.371	0.114	1.02056
13:32:04.372	0.115	5.24429
13:32:04.373	0.116	9.48327
13:32:04.374	0.117	13.7565
13:32:04.375	0.118	18.0686
13:32:04.376	0.119	22.4078
13:32:04.377	0.12	26.7529
13:32:04.378	0.121	31.0817
13:32:04.379	0.122	35.3779
13:32:04.380	0.123	39.6268
13:32:04.381	0.124	43.8041
13:32:04.382	0.125	47.8694
13:32:04.383	0.126	51.7764
13:32:04.384	0.127	55.4946
13:32:04.385	0.128	59.0227
13:32:04.386	0.129	62.3835
13:32:04.387	0.13	65.602
13:32:04.388	0.131	68.6882
13:32:04.389	0.132	71.6391
13:32:04.390	0.133	74.4527
13:32:04.391	0.134	77.1334
13:32:04.392	0.135	79.6888
13:32:04.393	0.136	82.125
13:32:04.394	0.137	84.445
13:32:04.395	0.138	86.6472
13:32:04.396	0.139	88.7232
13:32:04.397	0.14	90.6592
13:32:04.398	0.141	92.4433
13:32:04.399	0.142	94.0737
13:32:04.400	0.143	95.5565
13:32:04.401	0.144	96.8964
13:32:04.402	0.145	98.0886
13:32:04.403	0.146	99.1184
13:32:04.404	0.147	99.9678
13:32:04.405	0.148	100.624
13:32:04.406	0.149	101.084
13:32:04.407	0.15	101.352
13:32:04.408	0.151	101.433
13:32:04.409	0.152	101.321
13:32:04.410	0.153	101.004
13:32:04.411	0.154	100.465
13:32:04.412	0.155	99.6897
13:32:04.413	0.156	98.6654
13:32:04.414	0.157	97.3812
13:32:04.415	0.158	95.8335
13:32:04.416	0.159	94.0298
13:32:04.417	0.16	91.984
13:32:04.418	0.161	89.7075
13:32:04.419	0.162	87.2021
13:32:04.420	0.163	84.458
13:32:04.421	0.164	81.4596
13:32:04.422	0.165	78.1963
13:32:04.423	0.166	74.6692
13:32:04.424	0.167	70.8909
13:32:04.425	0.168	66.88
13:32:04.426	0.169	62.6562
13:32:04.427	0.17	58.2368
13:32:04.428	0.171	53.6357
13:32:04.429	0.172	48.8651
13:32:04.430	0.173	43.9344
13:32:04.431	0.174	38.8442
13:32:04.432	0.175	33.5815
13:32:04.433	0.176	28.1205
13:32:04.434	0.177	22.4273
13:32:04.435	0.178	16.4663
13:32:04.436	0.179	10.2113
13:32:04.437	0.18	3.6529
13:32:04.438	0.181	-3.19789
13:32:04.439	0.182	-10.3101
13:32:04.440	0.183	-17.6365
13:32:04.441	0.184	-25.1204
13:32:04.442	0.185	-32.7012
13:32:04.443	0.186	-40.3182
13:32:04.444	0.187	-47.9151
13:32:04.445	0.188	-55.4445
13:32:04.446	0.189	-62.8724
13:32:04.447	0.19	-70.1762
13:32:04.448	0.191	-77.3369
13:32:04.449	0.192	-84.3317
13:32:04.450	0.193	-91.1351
13:32:04.451	0.194	-97.7223
13:32:04.452	0.195	-104.074
13:32:04.453	0.196	-110.179
13:32:04.454	0.197	-116.045
13:32:04.455	0.198	-121.689
13:32:04.456	0.199	-127.139
13:32:04.457	0.2	-132.426
13:32:04.458	0.201	-137.588
13:32:04.459	0.202	-142.67
13:32:04.460	0.203	-147.714
13:32:04.461	0.204	-152.752
13:32:04.462	0.205	-157.794
13:32:04.463	0.206	-162.829
13:32:04.464	0.207	-167.829
13:32:04.465	0.208	-172.757
13:32:04.466	0.209	-177.577
13:32:04.467	0.21	-182.249
13:32:04.468	0.211	-186.733
13:32:04.469	0.212	-190.989
13:32:04.470	0.213	-194.974
13:32:04.471	0.214	-198.652
13:32:04.472	0.215	-201.994
13:32:04.473	0.216	-204.988
13:32:04.474	0.217	-207.636
13:32:04.475	0.218	-209.957
13:32:04.476	0.219	-211.98
13:32:04.477	0.22	-213.739
13:32:04.478	0.221	-215.266
13:32:04.479	0.222	-216.587
13:32:04.480	0.223	-217.732
13:32:04.481	0.224	-218.732
13:32:04.482	0.225	-219.626
13:32:04.483	0.226	-220.452
13:32:04.484	0.227	-221.254
13:32:04.485	0.228	-222.072
13:32:04.486	0.229	-222.944
13:32:04.487	0.23	-223.894
13:32:04.488	0.231	-224.93
13:32:04.489	0.232	-226.045
13:32:04.490	0.233	-227.222
13:32:04.491	0.234	-228.435
13:32:04.492	0.235	-229.65
13:32:04.493	0.236	-230.829
13:32:04.494	0.237	-231.923
13:32:04.495	0.238	-232.881
13:32:04.496	0.239	-233.662
13:32:04.497	0.24	-234.253
13:32:04.498	0.241	-234.666
13:32:04.499	0.242	-234.932
13:32:04.500	0.243	-235.081
13:32:04.501	0.244	-235.144
13:32:04.502	0.245	-235.143
13:32:04.503	0.246	-235.091
13:32:04.504	0.247	-234.994
13:32:04.505	0.248	-234.863
13:32:04.506	0.249	-234.717
13:32:04.507	0.25	-234.577
13:32:04.508	0.251	-234.463
13:32:04.509	0.252	-234.4
13:32:04.510	0.253	-234.418
13:32:04.511	0.254	-234.554
13:32:04.512	0.255	-234.845
13:32:04.513	0.256	-235.319
13:32:04.514	0.257	-235.997
13:32:04.515	0.258	-236.885
13:32:04.516	0.259	-237.976
13:32:04.517	0.26	-239.251
13:32:04.518	0.261	-240.681
13:32:04.519	0.262	-242.235
13:32:04.520	0.263	-243.887
13:32:04.521	0.264	-245.62
13:32:04.522	0.265	-247.419
13:32:04.523	0.266	-249.261
13:32:04.524	0.267	-251.108
13:32:04.525	0.268	-252.908
13:32:04.526	0.269	-254.616
13:32:04.527	0.27	-256.191
13:32:04.528	0.271	-257.594
13:32:04.529	0.272	-258.78
13:32:04.530	0.273	-259.707
13:32:04.531	0.274	-260.338
13:32:04.532	0.275	-260.656
13:32:04.533	0.276	-260.663
13:32:04.534	0.277	-260.373
13:32:04.535	0.278	-259.806
13:32:04.536	0.279	-258.984
13:32:04.537	0.28	-257.935
13:32:04.538	0.281	-256.694
13:32:04.539	0.282	-255.294
13:32:04.540	0.283	-253.771
13:32:04.541	0.284	-252.157
13:32:04.542	0.285	-250.491
13:32:04.543	0.286	-248.814
13:32:04.544	0.287	-247.174
13:32:04.545	0.288	-245.622
13:32:04.546	0.289	-244.192
13:32:04.547	0.29	-242.9
13:32:04.548	0.291	-241.738
13:32:04.549	0.292	-240.674
13:32:04.550	0.293	-239.67
13:32:04.551	0.294	-238.692
13:32:04.552	0.295	-237.714
13:32:04.553	0.296	-236.72
13:32:04.554	0.297	-235.701
13:32:04.555	0.298	-234.649
13:32:04.556	0.299	-233.564
13:32:04.557	0.3	-232.452
13:32:04.558	0.301	-231.315
13:32:04.559	0.302	-230.151
13:32:04.560	0.303	-228.955
13:32:04.561	0.304	-227.733
13:32:04.562	0.305	-226.502
13:32:04.563	0.306	-225.283
13:32:04.564	0.307	-224.102
13:32:04.565	0.308	-222.988
13:32:04.566	0.309	-221.975
13:32:04.567	0.31	-221.095
13:32:04.568	0.311	-220.381
13:32:04.569	0.312	-219.858
13:32:04.570	0.313	-219.537
13:32:04.571	0.314	-219.403
13:32:04.572	0.315	-219.432
13:32:04.573	0.316	-219.596
13:32:04.574	0.317	-219.881
13:32:04.575	0.318	-220.28
13:32:04.576	0.319	-220.797
13:32:04.577	0.32	-221.431
13:32:04.578	0.321	-222.175
13:32:04.579	0.322	-223.012
13:32:04.580	0.323	-223.906
13:32:04.581	0.324	-224.804
13:32:04.582	0.325	-225.643
13:32:04.583	0.326	-226.352
13:32:04.584	0.327	-226.854
13:32:04.585	0.328	-227.078
13:32:04.586	0.329	-226.967
13:32:04.587	0.33	-226.497
13:32:04.588	0.331	-225.667
13:32:04.589	0.332	-224.502
13:32:04.590	0.333	-223.035
13:32:04.591	0.334	-221.313
13:32:04.592	0.335	-219.391
13:32:04.593	0.336	-217.338
13:32:04.594	0.337	-215.228
13:32:04.595	0.338	-213.139
13:32:04.596	0.339	-211.141
13:32:04.597	0.34	-209.302
13:32:04.598	0.341	-207.673
13:32:04.599	0.342	-206.286
13:32:04.600	0.343	-205.161
13:32:04.601	0.344	-204.309
13:32:04.602	0.345	-203.732
13:32:04.603	0.346	-203.418
13:32:04.604	0.347	-203.335
13:32:04.605	0.348	-203.447
13:32:04.606	0.349	-203.718
13:32:04.607	0.35	-204.116
13:32:04.608	0.351	-204.605
13:32:04.609	0.352	-205.145
13:32:04.610	0.353	-205.69
13:32:04.611	0.354	-206.199
13:32:04.612	0.355	-206.635
13:32:04.613	0.356	-206.969
13:32:04.614	0.357	-207.174
13:32:04.615	0.358	-207.232
13:32:04.616	0.359	-207.141
13:32:04.617	0.36	-206.919
13:32:04.618	0.361	-206.601
13:32:04.619	0.362	-206.229
13:32:04.620	0.363	-205.855
13:32:04.621	0.364	-205.527
13:32:04.622	0.365	-205.29
13:32:04.623	0.366	-205.182
13:32:04.624	0.367	-205.229
13:32:04.625	0.368	-205.439
13:32:04.626	0.369	-205.792
13:32:04.627	0.37	-206.245
13:32:04.628	0.371	-206.737
13:32:04.629	0.372	-207.201
13:32:04.630	0.373	-207.576
13:32:04.631	0.374	-207.811
13:32:04.632	0.375	-207.868
13:32:04.633	0.376	-207.727
13:32:04.634	0.377	-207.38
13:32:04.635	0.378	-206.84
13:32:04.636	0.379	-206.145
13:32:04.637	0.38	-205.348
13:32:04.638	0.381	-204.512
13:32:04.639	0.382	-203.699
13:32:04.640	0.383	-202.968
13:32:04.641	0.384	-202.362
13:32:04.642	0.385	-201.908
13:32:04.643	0.386	-201.616
13:32:04.644	0.387	-201.48
13:32:04.645	0.388	-201.482
13:32:04.646	0.389	-201.589
13:32:04.647	0.39	-201.767
13:32:04.648	0.391	-201.991
13:32:04.649	0.392	-202.254
13:32:04.650	0.393	-202.561
13:32:04.651	0.394	-202.927
13:32:04.652	0.395	-203.368
13:32:04.653	0.396	-203.894
13:32:04.654	0.397	-204.505
13:32:04.655	0.398	-205.189
13:32:04.656	0.399	-205.924
13:32:04.657	0.4	-206.677
13:32:04.658	0.401	-207.405
13:32:04.659	0.402	-208.07
13:32:04.660	0.403	-208.641
13:32:04.661	0.404	-209.104
13:32:04.662	0.405	-209.466
13:32:04.663	0.406	-209.745
13:32:04.664	0.407	-209.962
13:32:04.665	0.408	-210.132
13:32:04.666	0.409	-210.261
13:32:04.667	0.41	-210.352
13:32:04.668	0.411	-210.409
13:32:04.669	0.412	-210.438
13:32:04.670	0.413	-210.452
13:32:04.671	0.414	-210.468
13:32:04.672	0.415	-210.501
13:32:04.673	0.416	-210.572
13:32:04.674	0.417	-210.701
13:32:04.675	0.418	-210.905
13:32:04.676	0.419	-211.193
13:32:04.677	0.42	-211.563
13:32:04.678	0.421	-212.006
13:32:04.679	0.422	-212.506
13:32:04.680	0.423	-213.038
13:32:04.681	0.424	-213.56
13:32:04.682	0.425	-214.022
13:32:04.683	0.426	-214.375
13:32:04.684	0.427	-214.586
13:32:04.685	0.428	-214.641
13:32:04.686	0.429	-214.552
13:32:04.687	0.43	-214.351
13:32:04.688	0.431	-214.086
13:32:04.689	0.432	-213.803
13:32:04.690	0.433	-213.535
13:32:04.691	0.434	-213.294
13:32:04.692	0.435	-213.069
13:32:04.693	0.436	-212.838
13:32:04.694	0.437	-212.563
13:32:04.695	0.438	-212.207
13:32:04.696	0.439	-211.727
13:32:04.697	0.44	-211.085
13:32:04.698	0.441	-210.256
13:32:04.699	0.442	-209.233
13:32:04.700	0.443	-208.027
13:32:04.701	0.444	-206.652
13:32:04.702	0.445	-205.131
13:32:04.703	0.446	-203.493
13:32:04.704	0.447	-201.783
13:32:04.705	0.448	-200.063
13:32:04.706	0.449	-198.403
13:32:04.707	0.45	-196.876
13:32:04.708	0.451	-195.543
13:32:04.709	0.452	-194.447
13:32:04.710	0.453	-193.609
13:32:04.711	0.454	-193.033
13:32:04.712	0.455	-192.713
13:32:04.713	0.456	-192.645
13:32:04.714	0.457	-192.822
13:32:04.715	0.458	-193.226
13:32:04.716	0.459	-193.828
13:32:04.717	0.46	-194.593
13:32:04.718	0.461	-195.487
13:32:04.719	0.462	-196.481
13:32:04.720	0.463	-197.539
13:32:04.721	0.464	-198.62
13:32:04.722	0.465	-199.679
13:32:04.723	0.466	-200.676
13:32:04.724	0.467	-201.581
13:32:04.725	0.468	-202.372
13:32:04.726	0.469	-203.033
13:32:04.727	0.47	-203.55
13:32:04.728	0.471	-203.906
13:32:04.729	0.472	-204.084
13:32:04.730	0.473	-204.068
13:32:04.731	0.474	-203.842
13:32:04.732	0.475	-203.39
13:32:04.733	0.476	-202.701
13:32:04.734	0.477	-201.77
13:32:04.735	0.478	-200.605
13:32:04.736	0.479	-199.23
13:32:04.737	0.48	-197.683
13:32:04.738	0.481	-196.014
13:32:04.739	0.482	-194.286
13:32:04.740	0.483	-192.573
13:32:04.741	0.484	-190.95
13:32:04.742	0.485	-189.487
13:32:04.743	0.486	-188.252
13:32:04.744	0.487	-187.32
13:32:04.745	0.488	-186.763
13:32:04.746	0.489	-186.641
13:32:04.747	0.49	-186.977
13:32:04.748	0.491	-187.755
13:32:04.749	0.492	-188.924
13:32:04.750	0.493	-190.41
13:32:04.751	0.494	-192.126
13:32:04.752	0.495	-193.98
13:32:04.753	0.496	-195.871
13:32:04.754	0.497	-197.7
13:32:04.755	0.498	-199.372
13:32:04.756	0.499	-200.805
13:32:04.757	0.5	-201.929
13:32:04.758	0.501	-202.698
13:32:04.759	0.502	-203.096
13:32:04.760	0.503	-203.141
13:32:04.761	0.504	-202.877
13:32:04.762	0.505	-202.365
13:32:04.763	0.506	-201.668
13:32:04.764	0.507	-200.84
13:32:04.765	0.508	-199.92
13:32:04.766	0.509	-198.938
13:32:04.767	0.51	-197.925
13:32:04.768	0.511	-196.916
13:32:04.769	0.512	-195.953
13:32:04.770	0.513	-195.068
13:32:04.771	0.514	-194.282
13:32:04.772	0.515	-193.602
13:32:04.773	0.516	-193.023
13:32:04.774	0.517	-192.533
13:32:04.775	0.518	-192.121
13:32:04.776	0.519	-191.78
13:32:04.777	0.52	-191.503
13:32:04.778	0.521	-191.291
13:32:04.779	0.522	-191.151
13:32:04.780	0.523	-191.092
13:32:04.781	0.524	-191.117
13:32:04.782	0.525	-191.204
13:32:04.783	0.526	-191.303
13:32:04.784	0.527	-191.344
13:32:04.785	0.528	-191.26
13:32:04.786	0.529	-190.996
13:32:04.787	0.53	-190.523
13:32:04.788	0.531	-189.837
13:32:04.789	0.532	-188.948
13:32:04.790	0.533	-187.882
13:32:04.791	0.534	-186.674
13:32:04.792	0.535	-185.359
13:32:04.793	0.536	-183.97
13:32:04.794	0.537	-182.54
13:32:04.795	0.538	-181.098
13:32:04.796	0.539	-179.67
13:32:04.797	0.54	-178.265
13:32:04.798	0.541	-176.879
13:32:04.799	0.542	-175.498
13:32:04.800	0.543	-174.104
13:32:04.801	0.544	-172.674
13:32:04.802	0.545	-171.19
13:32:04.803	0.546	-169.655
13:32:04.804	0.547	-168.097
13:32:04.805	0.548	-166.567
13:32:04.806	0.549	-165.13
13:32:04.807	0.55	-163.856
13:32:04.808	0.551	-162.8
13:32:04.809	0.552	-161.996
13:32:04.810	0.553	-161.452
13:32:04.811	0.554	-161.159
13:32:04.812	0.555	-161.095
13:32:04.813	0.556	-161.23
13:32:04.814	0.557	-161.517
13:32:04.815	0.558	-161.906
13:32:04.816	0.559	-162.35
13:32:04.817	0.56	-162.791
13:32:04.818	0.561	-163.168
13:32:04.819	0.562	-163.415
13:32:04.820	0.563	-163.475
13:32:04.821	0.564	-163.307
13:32:04.822	0.565	-162.886
13:32:04.823	0.566	-162.199
13:32:04.824	0.567	-161.247
13:32:04.825	0.568	-160.033
13:32:04.826	0.569	-158.571
13:32:04.827	0.57	-156.88
13:32:04.828	0.571	-154.987
13:32:04.829	0.572	-152.927
13:32:04.830	0.573	-150.743
13:32:04.831	0.574	-148.486
13:32:04.832	0.575	-146.216
13:32:04.833	0.576	-143.993
13:32:04.834	0.577	-141.872
13:32:04.835	0.578	-139.896
13:32:04.836	0.579	-138.1
13:32:04.837	0.58	-136.514
13:32:04.838	0.581	-135.159
13:32:04.839	0.582	-134.038
13:32:04.840	0.583	-133.137
13:32:04.841	0.584	-132.425
13:32:04.842	0.585	-131.873
13:32:04.843	0.586	-131.447
13:32:04.844	0.587	-131.109
13:32:04.845	0.588	-130.808
13:32:04.846	0.589	-130.492
13:32:04.847	0.59	-130.115
13:32:04.848	0.591	-129.644
13:32:04.849	0.592	-129.06
13:32:04.850	0.593	-128.347
13:32:04.851	0.594	-127.488
13:32:04.852	0.595	-126.473
13:32:04.853	0.596	-125.294
13:32:04.854	0.597	-123.954
13:32:04.855	0.598	-122.469
13:32:04.856	0.599	-120.863
13:32:04.857	0.6	-119.17
13:32:04.858	0.601	-117.429
13:32:04.859	0.602	-115.685
13:32:04.860	0.603	-113.989
13:32:04.861	0.604	-112.394
13:32:04.862	0.605	-110.951
13:32:04.863	0.606	-109.694
13:32:04.864	0.607	-108.647
13:32:04.865	0.608	-107.829
13:32:04.866	0.609	-107.259
13:32:04.867	0.61	-106.966
13:32:04.868	0.611	-106.984
13:32:04.869	0.612	-107.352
13:32:04.870	0.613	-108.114
13:32:04.871	0.614	-109.303
13:32:04.872	0.615	-110.935
13:32:04.873	0.616	-112.994
13:32:04.874	0.617	-115.436
13:32:04.875	0.618	-118.202
13:32:04.876	0.619	-121.225
13:32:04.877	0.62	-124.438
13:32:04.878	0.621	-127.778
13:32:04.879	0.622	-131.186
13:32:04.880	0.623	-134.6
13:32:04.881	0.624	-137.956
13:32:04.882	0.625	-141.18
13:32:04.883	0.626	-144.192
13:32:04.884	0.627	-146.914
13:32:04.885	0.628	-149.281
13:32:04.886	0.629	-151.248
13:32:04.887	0.63	-152.801
13:32:04.888	0.631	-153.95
13:32:04.889	0.632	-154.728
13:32:04.890	0.633	-155.186
13:32:04.891	0.634	-155.397
13:32:04.892	0.635	-155.449
13:32:04.893	0.636	-155.44
13:32:04.894	0.637	-155.456
13:32:04.895	0.638	-155.57
13:32:04.896	0.639	-155.827
13:32:04.897	0.64	-156.249
13:32:04.898	0.641	-156.833
13:32:04.899	0.642	-157.553
13:32:04.900	0.643	-158.385
13:32:04.901	0.644	-159.306
13:32:04.902	0.645	-160.299
13:32:04.903	0.646	-161.34
13:32:04.904	0.647	-162.406
13:32:04.905	0.648	-163.48
13:32:04.906	0.649	-164.561
13:32:04.907	0.65	-165.649
13:32:04.908	0.651	-166.735
13:32:04.909	0.652	-167.802
13:32:04.910	0.653	-168.826
13:32:04.911	0.654	-169.782
13:32:04.912	0.655	-170.634
13:32:04.913	0.656	-171.335
13:32:04.914	0.657	-171.835
13:32:04.915	0.658	-172.099
13:32:04.916	0.659	-172.12
13:32:04.917	0.66	-171.911
13:32:04.918	0.661	-171.507
13:32:04.919	0.662	-170.954
13:32:04.920	0.663	-170.308
13:32:04.921	0.664	-169.627
13:32:04.922	0.665	-168.957
13:32:04.923	0.666	-168.332
13:32:04.924	0.667	-167.774
13:32:04.925	0.668	-167.297
13:32:04.926	0.669	-166.921
13:32:04.927	0.67	-166.67
13:32:04.928	0.671	-166.564
13:32:04.929	0.672	-166.618
13:32:04.930	0.673	-166.834
13:32:04.931	0.674	-167.215
13:32:04.932	0.675	-167.759
13:32:04.933	0.676	-168.465
13:32:04.934	0.677	-169.329
13:32:04.935	0.678	-170.346
13:32:04.936	0.679	-171.503
13:32:04.937	0.68	-172.774
13:32:04.938	0.681	-174.12
13:32:04.939	0.682	-175.487
13:32:04.940	0.683	-176.822
13:32:04.941	0.684	-178.081
13:32:04.942	0.685	-179.231
13:32:04.943	0.686	-180.253
13:32:04.944	0.687	-181.132
13:32:04.945	0.688	-181.854
13:32:04.946	0.689	-182.409
13:32:04.947	0.69	-182.792
13:32:04.948	0.691	-183.003
13:32:04.949	0.692	-183.046
13:32:04.950	0.693	-182.936
13:32:04.951	0.694	-182.699
13:32:04.952	0.695	-182.364
13:32:04.953	0.696	-181.959
13:32:04.954	0.697	-181.503
13:32:04.955	0.698	-181.008
13:32:04.956	0.699	-180.479
13:32:04.957	0.7	-179.904
13:32:04.958	0.701	-179.245
13:32:04.959	0.702	-178.442
13:32:04.960	0.703	-177.42
13:32:04.961	0.704	-176.095
13:32:04.962	0.705	-174.371
13:32:04.963	0.706	-172.136
13:32:04.964	0.707	-169.25
13:32:04.965	0.708	-165.549
13:32:04.966	0.709	-160.866
13:32:04.967	0.71	-155.047
13:32:04.968	0.711	-147.971
13:32:04.969	0.712	-139.559
13:32:04.970	0.713	-129.772
13:32:04.971	0.714	-118.608
13:32:04.972	0.715	-106.099
13:32:04.973	0.716	-92.3051
13:32:04.974	0.717	-77.3102
13:32:04.975	0.718	-61.2209
13:32:04.976	0.719	-44.1672
13:32:04.977	0.72	-26.3028
13:32:04.978	0.721	-7.80141
13:32:04.979	0.722	11.1488
13:32:04.980	0.723	30.3485
13:32:04.981	0.724	49.5871
13:32:04.982	0.725	68.645
13:32:04.983	0.726	87.2986
13:32:04.984	0.727	105.321
13:32:04.985	0.728	122.479
13:32:04.986	0.729	138.528
13:32:04.987	0.73	153.217
13:32:04.988	0.731	166.303
13:32:04.989	0.732	177.558
13:32:04.990	0.733	186.772
13:32:04.991	0.734	193.758
13:32:04.992	0.735	198.358
13:32:04.993	0.736	200.451	mark
13:32:04.994	0.737	199.958
13:32:04.995	0.738	196.836
13:32:04.996	0.739	191.087
13:32:04.997	0.74	182.743
13:32:04.998	0.741	171.875
13:32:04.999	0.742	158.589
13:32:05.000	0.743	143.034
13:32:05.001	0.744	125.389
13:32:05.002	0.745	105.853
13:32:05.003	0.746	84.6421
13:32:05.004	0.747	61.9979
13:32:05.005	0.748	38.2061
13:32:05.006	0.749	13.6004
13:32:05.007	0.75	-11.4511
13:32:05.008	0.751	-36.5709
13:32:05.009	0.752	-61.3938
13:32:05.010	0.753	-85.5826
13:32:05.011	0.754	-108.832
13:32:05.012	0.755	-130.865
13:32:05.013	0.756	-151.439
13:32:05.014	0.757	-170.361
13:32:05.015	0.758	-187.496
13:32:05.016	0.759	-202.773
13:32:05.017	0.76	-216.172
13:32:05.018	0.761	-227.712
13:32:05.019	0.762	-237.431
13:32:05.020	0.763	-245.39
13:32:05.021	0.764	-251.666
13:32:05.022	0.765	-256.364
13:32:05.023	0.766	-259.61
13:32:05.024	0.767	-261.548
13:32:05.025	0.768	-262.337
13:32:05.026	0.769	-262.149
13:32:05.027	0.77	-261.164
13:32:05.028	0.771	-259.554
13:32:05.029	0.772	-257.463
13:32:05.030	0.773	-254.988
13:32:05.031	0.774	-252.18
13:32:05.032	0.775	-249.066
13:32:05.033	0.776	-245.659
13:32:05.034	0.777	-241.98
13:32:05.035	0.778	-238.05
13:32:05.036	0.779	-233.891
13:32:05.037	0.78	-229.519
13:32:05.038	0.781	-224.953
13:32:05.039	0.782	-220.215
13:32:05.040	0.783	-215.339
13:32:05.041	0.784	-210.369
13:32:05.042	0.785	-205.354
13:32:05.043	0.786	-200.343
13:32:05.044	0.787	-195.376
13:32:05.045	0.788	-190.475
13:32:05.046	0.789	-185.658
13:32:05.047	0.79	-180.932
13:32:05.048	0.791	-176.308
13:32:05.049	0.792	-171.794
13:32:05.050	0.793	-167.411
13:32:05.051	0.794	-163.181
13:32:05.052	0.795	-159.127
13:32:05.053	0.796	-155.259
13:32:05.054	0.797	-151.57
13:32:05.055	0.798	-148.046
13:32:05.056	0.799	-144.663
13:32:05.057	0.8	-141.404
13:32:05.058	0.801	-138.252
13:32:05.059	0.802	-135.196
13:32:05.060	0.803	-132.238
13:32:05.061	0.804	-129.392
13:32:05.062	0.805	-126.687
13:32:05.063	0.806	-124.155
13:32:05.064	0.807	-121.824
13:32:05.065	0.808	-119.709
13:32:05.066	0.809	-117.81
13:32:05.067	0.81	-116.116
13:32:05.068	0.811	-114.615
13:32:05.069	0.812	-113.294
13:32:05.070	0.813	-112.137
13:32:05.071	0.814	-111.124
13:32:05.072	0.815	-110.225
13:32:05.073	0.816	-109.407
13:32:05.074	0.817	-108.636
13:32:05.075	0.818	-107.878
13:32:05.076	0.819	-107.11
13:32:05.077	0.82	-106.311
13:32:05.078	0.821	-105.458
13:32:05.079	0.822	-104.532
13:32:05.080	0.823	-103.523
13:32:05.081	0.824	-102.44
13:32:05.082	0.825	-101.297
13:32:05.083	0.826	-100.116
13:32:05.084	0.827	-98.9202
13:32:05.085	0.828	-97.7407
13:32:05.086	0.829	-96.617
13:32:05.087	0.83	-95.5862
13:32:05.088	0.831	-94.6741
13:32:05.089	0.832	-93.8908
13:32:05.090	0.833	-93.2296
13:32:05.091	0.834	-92.6681
13:32:05.092	0.835	-92.1727
13:32:05.093	0.836	-91.7035
13:32:05.094	0.837	-91.2182
13:32:05.095	0.838	-90.6792
13:32:05.096	0.839	-90.0623
13:32:05.097	0.84	-89.3589
13:32:05.098	0.841	-88.5709
13:32:05.099	0.842	-87.6991
13:32:05.100	0.843	-86.7337
13:32:05.101	0.844	-85.6551
13:32:05.102	0.845	-84.4469
13:32:05.103	0.846	-83.1066
13:32:05.104	0.847	-81.6484
13:32:05.105	0.848	-80.1001
13:32:05.106	0.849	-78.498
13:32:05.107	0.85	-76.8801
13:32:05.108	0.851	-75.278
13:32:05.109	0.852	-73.7147
13:32:05.110	0.853	-72.206
13:32:05.111	0.854	-70.762
13:32:05.112	0.855	-69.3828
13:32:05.113	0.856	-68.0571
13:32:05.114	0.857	-66.7669
13:32:05.115	0.858	-65.4907
13:32:05.116	0.859	-64.2068
13:32:05.117	0.86	-62.8966
13:32:05.118	0.861	-61.5464
13:32:05.119	0.862	-60.1442
13:32:05.120	0.863	-58.6766
13:32:05.121	0.864	-57.1334
13:32:05.122	0.865	-55.5164
13:32:05.123	0.866	-53.8398
13:32:05.124	0.867	-52.1247
13:32:05.125	0.868	-50.3934
13:32:05.126	0.869	-48.6665
13:32:05.127	0.87	-46.96
13:32:05.128	0.871	-45.2829
13:32:05.129	0.872	-43.635
13:32:05.130	0.873	-42.0024
13:32:05.131	0.874	-40.3566
13:32:05.132	0.875	-38.6607
13:32:05.133	0.876	-36.8821
13:32:05.134	0.877	-35.0028
13:32:05.135	0.878	-33.023
13:32:05.136	0.879	-30.9572
13:32:05.137	0.88	-28.8258
13:32:05.138	0.881	-26.6517
13:32:05.139	0.882	-24.461
13:32:05.140	0.883	-22.2787
13:32:05.141	0.884	-20.1181
13:32:05.142	0.885	-17.9741
13:32:05.143	0.886	-15.8244
13:32:05.144	0.887	-13.6385
13:32:05.145	0.888	-11.3885
13:32:05.146	0.889	-9.0522
13:32:05.147	0.89	-6.61097
13:32:05.148	0.891	-4.04731
13:32:05.149	0.892	-1.34823
13:32:05.150	0.893	1.49096
13:32:05.151	0.894	4.46802
13:32:05.152	0.895	7.58185
13:32:05.153	0.896	10.8421
13:32:05.154	0.897	14.2717
13:32:05.155	0.898	17.901
13:32:05.156	0.899	21.7628
13:32:05.157	0.9	25.8905
13:32:05.158	0.901	30.3102
13:32:05.159	0.902	35.0292
13:32:05.160	0.903	40.0286
13:32:05.161	0.904	45.2642
13:32:05.162	0.905	50.6765
13:32:05.163	0.906	56.2028
13:32:05.164	0.907	61.7886
13:32:05.165	0.908	67.3922
13:32:05.166	0.909	72.9815
13:32:05.167	0.91	78.5291
13:32:05.168	0.911	84.0089
13:32:05.169	0.912	89.3964
13:32:05.170	0.913	94.6701
13:32:05.171	0.914	99.8118
13:32:05.172	0.915	104.805
13:32:05.173	0.916	109.639
13:32:05.174	0.917	114.308
13:32:05.175	0.918	118.826
13:32:05.176	0.919	123.219
13:32:05.177	0.92	127.526
13:32:05.178	0.921	131.784
13:32:05.179	0.922	136.018
13:32:05.180	0.923	140.238
13:32:05.181	0.924	144.439
13:32:05.182	0.925	148.617
13:32:05.183	0.926	152.764
13:32:05.184	0.927	156.874
13:32:05.185	0.928	160.929
13:32:05.186	0.929	164.908
13:32:05.187	0.93	168.781
13:32:05.188	0.931	172.522
13:32:05.189	0.932	176.119
13:32:05.190	0.933	179.568
13:32:05.191	0.934	182.876
13:32:05.192	0.935	186.043
13:32:05.193	0.936	189.062
13:32:05.194	0.937	191.92
13:32:05.195	0.938	194.609
13:32:05.196	0.939	197.125
13:32:05.197	0.94	199.465
13:32:05.198	0.941	201.622
13:32:05.199	0.942	203.592
13:32:05.200	0.943	205.37
13:32:05.201	0.944	206.955
13:32:05.202	0.945	208.344
13:32:05.203	0.946	209.527
13:32:05.204	0.947	210.487
13:32:05.205	0.948	211.202
13:32:05.206	0.949	211.655
13:32:05.207	0.95	211.845
13:32:05.208	0.951	211.772
13:32:05.209	0.952	211.43
13:32:05.210	0.953	210.819
13:32:05.211	0.954	209.949
13:32:05.212	0.955	208.849
13:32:05.213	0.956	207.555
13:32:05.214	0.957	206.106
13:32:05.215	0.958	204.538
13:32:05.216	0.959	202.878
13:32:05.217	0.96	201.147
13:32:05.218	0.961	199.356
13:32:05.219	0.962	197.51
13:32:05.220	0.963	195.604
13:32:05.221	0.964	193.609
13:32:05.222	0.965	191.47
13:32:05.223	0.966	189.113
13:32:05.224	0.967	186.463
13:32:05.225	0.968	183.458
13:32:05.226	0.969	180.067
13:32:05.227	0.97	176.285
13:32:05.228	0.971	172.127
13:32:05.229	0.972	167.623
13:32:05.230	0.973	162.811
13:32:05.231	0.974	157.733
13:32:05.232	0.975	152.437
13:32:05.233	0.976	146.96
13:32:05.234	0.977	141.32
13:32:05.235	0.978	135.516
13:32:05.236	0.979	129.534
13:32:05.237	0.98	123.35
13:32:05.238	0.981	116.934
13:32:05.239	0.982	110.262
13:32:05.240	0.983	103.326
13:32:05.241	0.984	96.1434
13:32:05.242	0.985	88.7509
13:32:05.243	0.986	81.1949
13:32:05.244	0.987	73.5204
13:32:05.245	0.988	65.7708
13:32:05.246	0.989	57.9922
13:32:05.247	0.99	50.2309
13:32:05.248	0.991	42.525
13:32:05.249	0.992	34.9025
13:32:05.250	0.993	27.389
13:32:05.251	0.994	20.0136
13:32:05.252	0.995	12.8073
13:32:05.253	0.996	5.79783
13:32:05.254	0.997	-0.993975
13:32:05.255	0.998	-7.55611
13:32:05.256	0.999	-13.8862
13:32:05.257	1	-19.9884
13:32:05.257	1.001	-25.8729
13:32:05.259	1.002	-31.5592
13:32:05.259	1.003	-37.0821
13:32:05.261	1.004	-42.4949
13:32:05.261	1.005	-47.8651
13:32:05.263	1.006	-53.2627
13:32:05.263	1.007	-58.7426
13:32:05.265	1.008	-64.3261
13:32:05.265	1.009	-69.988
13:32:05.267	1.01	-75.6576
13:32:05.267	1.011	-81.2403
13:32:05.269	1.012	-86.6443
13:32:05.269	1.013	-91.7965
13:32:05.271	1.014	-96.6479
13:32:05.271	1.015	-101.17
13:32:05.273	1.016	-105.345
13:32:05.273	1.017	-109.162
13:32:05.275	1.018	-112.614
13:32:05.275	1.019	-115.708
13:32:05.277	1.02	-118.469
13:32:05.277	1.021	-120.931
13:32:05.279	1.022	-123.122
13:32:05.279	1.023	-125.056
13:32:05.281	1.024	-126.734
13:32:05.282	1.025	-128.161
13:32:05.283	1.026	-129.349
13:32:05.284	1.027	-130.326
13:32:05.285	1.028	-131.127
13:32:05.286	1.029	-131.79
13:32:05.287	1.03	-132.351
13:32:05.288	1.031	-132.842
13:32:05.289	1.032	-133.296
13:32:05.290	1.033	-133.739
13:32:05.291	1.034	-134.19
13:32:05.292	1.035	-134.653
13:32:05.293	1.036	-135.121
13:32:05.294	1.037	-135.583
13:32:05.295	1.038	-136.031
13:32:05.296	1.039	-136.462
13:32:05.297	1.04	-136.884
13:32:05.298	1.041	-137.311
13:32:05.299	1.042	-137.755
13:32:05.300	1.043	-138.222
13:32:05.301	1.044	-138.709
13:32:05.302	1.045	-139.213
13:32:05.303	1.046	-139.724
13:32:05.304	1.047	-140.238
13:32:05.305	1.048	-140.752
13:32:05.306	1.049	-141.264
13:32:05.307	1.05	-141.763
13:32:05.308	1.051	-142.23
13:32:05.309	1.052	-142.645
13:32:05.310	1.053	-142.987
13:32:05.311	1.054	-143.244
13:32:05.312	1.055	-143.414
13:32:05.313	1.056	-143.511
13:32:05.314	1.057	-143.562
13:32:05.315	1.058	-143.613
13:32:05.316	1.059	-143.721
13:32:05.317	1.06	-143.935
13:32:05.318	1.061	-144.289
13:32:05.319	1.062	-144.795
13:32:05.320	1.063	-145.459
13:32:05.321	1.064	-146.27
13:32:05.322	1.065	-147.196
13:32:05.323	1.066	-148.168
13:32:05.324	1.067	-149.099
13:32:05.325	1.068	-149.899
13:32:05.326	1.069	-150.503
13:32:05.327	1.07	-150.874
13:32:05.328	1.071	-150.999
13:32:05.329	1.072	-150.869
13:32:05.330	1.073	-150.464
13:32:05.331	1.074	-149.761
13:32:05.332	1.075	-148.754
13:32:05.333	1.076	-147.474
13:32:05.334	1.077	-145.975
13:32:05.335	1.078	-144.319
13:32:05.336	1.079	-142.565
13:32:05.337	1.08	-140.763
13:32:05.338	1.081	-138.959
13:32:05.339	1.082	-137.2
13:32:05.340	1.083	-135.538
13:32:05.341	1.084	-134.03
13:32:05.342	1.085	-132.729
13:32:05.343	1.086	-131.674
13:32:05.344	1.087	-130.882
13:32:05.345	1.088	-130.353
13:32:05.346	1.089	-130.071
13:32:05.347	1.09	-130.018
13:32:05.348	1.091	-130.171
13:32:05.349	1.092	-130.501
13:32:05.350	1.093	-130.966
13:32:05.351	1.094	-131.511
13:32:05.352	1.095	-132.072
13:32:05.353	1.096	-132.595
13:32:05.354	1.097	-133.036
13:32:05.355	1.098	-133.367
13:32:05.356	1.099	-133.577
13:32:05.357	1.1	-133.668
13:32:05.358	1.101	-133.645
13:32:05.359	1.102	-133.512
13:32:05.360	1.103	-133.27
13:32:05.361	1.104	-132.916
13:32:05.362	1.105	-132.447
13:32:05.363	1.106	-131.855
13:32:05.364	1.107	-131.135
13:32:05.365	1.108	-130.285
13:32:05.366	1.109	-129.306
13:32:05.367	1.11	-128.207
13:32:05.368	1.111	-127.007
13:32:05.369	1.112	-125.733
13:32:05.370	1.113	-124.42
13:32:05.371	1.114	-123.106
13:32:05.372	1.115	-121.823
13:32:05.373	1.116	-120.604
13:32:05.374	1.117	-119.491
13:32:05.375	1.118	-118.533
13:32:05.376	1.119	-117.778
13:32:05.377	1.12	-117.257
13:32:05.378	1.121	-116.981
13:32:05.379	1.122	-116.945
13:32:05.380	1.123	-117.134
13:32:05.381	1.124	-117.528
13:32:05.382	1.125	-118.095
13:32:05.383	1.126	-118.793
13:32:05.384	1.127	-119.578
13:32:05.385	1.128	-120.41
13:32:05.386	1.129	-121.26
13:32:05.387	1.13	-122.1
13:32:05.388	1.131	-122.9
13:32:05.389	1.132	-123.628
13:32:05.390	1.133	-124.252
13:32:05.391	1.134	-124.742
13:32:05.392	1.135	-125.064
13:32:05.393	1.136	-125.185
13:32:05.394	1.137	-125.081
13:32:05.395	1.138	-124.741
13:32:05.396	1.139	-124.163
13:32:05.397	1.14	-123.349
13:32:05.398	1.141	-122.315
13:32:05.399	1.142	-121.087
13:32:05.400	1.143	-119.697
13:32:05.401	1.144	-118.183
13:32:05.402	1.145	-116.587
13:32:05.403	1.146	-114.961
13:32:05.404	1.147	-113.36
13:32:05.405	1.148	-111.837
13:32:05.406	1.149	-110.432
13:32:05.407	1.15	-109.169
13:32:05.408	1.151	-108.062
13:32:05.409	1.152	-107.122
13:32:05.410	1.153	-106.355
13:32:05.411	1.154	-105.767
13:32:05.412	1.155	-105.357
13:32:05.413	1.156	-105.118
13:32:05.414	1.157	-105.04
13:32:05.415	1.158	-105.107
13:32:05.416	1.159	-105.301
13:32:05.417	1.16	-105.605
13:32:05.418	1.161	-105.999
13:32:05.419	1.162	-106.465
13:32:05.420	1.163	-106.986
13:32:05.421	1.164	-107.548
13:32:05.422	1.165	-108.136
13:32:05.423	1.166	-108.75
13:32:05.424	1.167	-109.395
13:32:05.425	1.168	-110.073
13:32:05.426	1.169	-110.771
13:32:05.427	1.17	-111.459
13:32:05.428	1.171	-112.1
13:32:05.429	1.172	-112.655
13:32:05.430	1.173	-113.087
13:32:05.431	1.174	-113.366
13:32:05.432	1.175	-113.477
13:32:05.433	1.176	-113.425
13:32:05.434	1.177	-113.219
13:32:05.435	1.178	-112.87
13:32:05.436	1.179	-112.388
13:32:05.437	1.18	-111.79
13:32:05.438	1.181	-111.098
13:32:05.439	1.182	-110.347
13:32:05.440	1.183	-109.577
13:32:05.441	1.184	-108.83
13:32:05.442	1.185	-108.144
13:32:05.443	1.186	-107.547
13:32:05.444	1.187	-107.053
13:32:05.445	1.188	-106.67
13:32:05.446	1.189	-106.409
13:32:05.447	1.19	-106.284
13:32:05.448	1.191	-106.297
13:32:05.449	1.192	-106.433
13:32:05.450	1.193	-106.66
13:32:05.451	1.194	-106.943
13:32:05.452	1.195	-107.248
13:32:05.453	1.196	-107.545
13:32:05.454	1.197	-107.807
13:32:05.455	1.198	-108.013
13:32:05.456	1.199	-108.145
13:32:05.457	1.2	-108.182
13:32:05.458	1.201	-108.099
13:32:05.459	1.202	-107.87
13:32:05.460	1.203	-107.474
13:32:05.461	1.204	-106.902
13:32:05.462	1.205	-106.159
13:32:05.463	1.206	-105.264
13:32:05.464	1.207	-104.245
13:32:05.465	1.208	-103.142
13:32:05.466	1.209	-101.997
13:32:05.467	1.21	-100.844
13:32:05.468	1.211	-99.7015
13:32:05.469	1.212	-98.5649
13:32:05.470	1.213	-97.4236
13:32:05.471	1.214	-96.2785
13:32:05.472	1.215	-95.1506
13:32:05.473	1.216	-94.075
13:32:05.474	1.217	-93.096
13:32:05.475	1.218	-92.2702
13:32:05.476	1.219	-91.6683
13:32:05.477	1.22	-91.367
13:32:05.478	1.221	-91.431
13:32:05.479	1.222	-91.8927
13:32:05.480	1.223	-92.743
13:32:05.481	1.224	-93.9332
13:32:05.482	1.225	-95.3853
13:32:05.483	1.226	-97.0037
13:32:05.484	1.227	-98.6895
13:32:05.485	1.228	-100.357
13:32:05.486	1.229	-101.946
13:32:05.487	1.23	-103.425
13:32:05.488	1.231	-104.786
13:32:05.489	1.232	-106.036
13:32:05.490	1.233	-107.182
13:32:05.491	1.234	-108.229
13:32:05.492	1.235	-109.179
13:32:05.493	1.236	-110.036
13:32:05.494	1.237	-110.809
13:32:05.495	1.238	-111.5
13:32:05.496	1.239	-112.098
13:32:05.497	1.24	-112.575
13:32:05.498	1.241	-112.902
13:32:05.499	1.242	-113.061
13:32:05.500	1.243	-113.044
13:32:05.501	1.244	-112.855
13:32:05.502	1.245	-112.502
13:32:05.503	1.246	-112.001
13:32:05.504	1.247	-111.379
13:32:05.505	1.248	-110.668
13:32:05.506	1.249	-109.903
13:32:05.507	1.25	-109.114
13:32:05.508	1.251	-108.329
13:32:05.509	1.252	-107.567
13:32:05.510	1.253	-106.846
13:32:05.511	1.254	-106.187
13:32:05.512	1.255	-105.615
13:32:05.513	1.256	-105.162
13:32:05.514	1.257	-104.854
13:32:05.515	1.258	-104.714
13:32:05.516	1.259	-104.748
13:32:05.517	1.26	-104.948
13:32:05.518	1.261	-105.296
13:32:05.519	1.262	-105.766
13:32:05.520	1.263	-106.323
13:32:05.521	1.264	-106.921
13:32:05.522	1.265	-107.515
13:32:05.523	1.266	-108.068
13:32:05.524	1.267	-108.556
13:32:05.525	1.268	-108.966
13:32:05.526	1.269	-109.296
13:32:05.527	1.27	-109.562
13:32:05.528	1.271	-109.793
13:32:05.529	1.272	-110.021
13:32:05.530	1.273	-110.271
13:32:05.531	1.274	-110.552
13:32:05.532	1.275	-110.856
13:32:05.533	1.276	-111.159
13:32:05.534	1.277	-111.424
13:32:05.535	1.278	-111.606
13:32:05.536	1.279	-111.655
13:32:05.537	1.28	-111.529
13:32:05.538	1.281	-111.197
13:32:05.539	1.282	-110.64
13:32:05.540	1.283	-109.849
13:32:05.541	1.284	-108.816
13:32:05.542	1.285	-107.546
13:32:05.543	1.286	-106.057
13:32:05.544	1.287	-104.385
13:32:05.545	1.288	-102.576
13:32:05.546	1.289	-100.692
13:32:05.547	1.29	-98.8076
13:32:05.548	1.291	-97.0028
13:32:05.549	1.292	-95.3515
13:32:05.550	1.293	-93.9099
13:32:05.551	1.294	-92.7119
13:32:05.552	1.295	-91.7688
13:32:05.553	1.296	-91.0739
13:32:05.554	1.297	-90.61
13:32:05.555	1.298	-90.3531
13:32:05.556	1.299	-90.2728
13:32:05.557	1.3	-90.3317
13:32:05.558	1.301	-90.4902
13:32:05.559	1.302	-90.7124
13:32:05.560	1.303	-90.9691
13:32:05.561	1.304	-91.2366
13:32:05.562	1.305	-91.4954
13:32:05.563	1.306	-91.732
13:32:05.564	1.307	-91.942
13:32:05.565	1.308	-92.1337
13:32:05.566	1.309	-92.3323
13:32:05.567	1.31	-92.5835
13:32:05.568	1.311	-92.9499
13:32:05.569	1.312	-93.4955
13:32:05.570	1.313	-94.2638
13:32:05.571	1.314	-95.263
13:32:05.572	1.315	-96.4643
13:32:05.573	1.316	-97.8121
13:32:05.574	1.317	-99.2388
13:32:05.575	1.318	-100.676
13:32:05.576	1.319	-102.061
13:32:05.577	1.32	-103.334
13:32:05.578	1.321	-104.457
13:32:05.579	1.322	-105.407
13:32:05.580	1.323	-106.178
13:32:05.581	1.324	-106.77
13:32:05.582	1.325	-107.185
13:32:05.583	1.326	-107.43
13:32:05.584	1.327	-107.517
13:32:05.585	1.328	-107.457
13:32:05.586	1.329	-107.255
13:32:05.587	1.33	-106.907
13:32:05.588	1.331	-106.408
13:32:05.589	1.332	-105.746
13:32:05.590	1.333	-104.908
13:32:05.591	1.334	-103.891
13:32:05.592	1.335	-102.701
13:32:05.593	1.336	-101.356
13:32:05.594	1.337	-99.8747
13:32:05.595	1.338	-98.2731
13:32:05.596	1.339	-96.5626
13:32:05.597	1.34	-94.7557
13:32:05.598	1.341	-92.8677
13:32:05.599	1.342	-90.9162
13:32:05.600	1.343	-88.9163
13:32:05.601	1.344	-86.8799
13:32:05.602	1.345	-84.8206
13:32:05.603	1.346	-82.7616
13:32:05.604	1.347	-80.7381
13:32:05.605	1.348	-78.7934
13:32:05.606	1.349	-76.9722
13:32:05.607	1.35	-75.3138
13:32:05.608	1.351	-73.8512
13:32:05.609	1.352	-72.6132
13:32:05.610	1.353	-71.6213
13:32:05.611	1.354	-70.8829
13:32:05.612	1.355	-70.3901
13:32:05.613	1.356	-70.1243
13:32:05.614	1.357	-70.0628
13:32:05.615	1.358	-70.1837
13:32:05.616	1.359	-70.4642
13:32:05.617	1.36	-70.8785
13:32:05.618	1.361	-71.4004
13:32:05.619	1.362	-72.0076
13:32:05.620	1.363	-72.6837
13:32:05.621	1.364	-73.4124
13:32:05.622	1.365	-74.1695
13:32:05.623	1.366	-74.9213
13:32:05.624	1.367	-75.6309
13:32:05.625	1.368	-76.2671
13:32:05.626	1.369	-76.8111
13:32:05.627	1.37	-77.2547
13:32:05.628	1.371	-77.5932
13:32:05.629	1.372	-77.822
13:32:05.630	1.373	-77.9394
13:32:05.631	1.374	-77.9506
13:32:05.632	1.375	-77.8684
13:32:05.633	1.376	-77.7092
13:32:05.634	1.377	-77.4888
13:32:05.635	1.378	-77.2164
13:32:05.636	1.379	-76.8881
13:32:05.637	1.38	-76.4824
13:32:05.638	1.381	-75.9646
13:32:05.639	1.382	-75.2991
13:32:05.640	1.383	-74.4628
13:32:05.641	1.384	-73.452
13:32:05.642	1.385	-72.2831
13:32:05.643	1.386	-70.9856
13:32:05.644	1.387	-69.5931
13:32:05.645	1.388	-68.1338
13:32:05.646	1.389	-66.6285
13:32:05.647	1.39	-65.0951
13:32:05.648	1.391	-63.5588
13:32:05.649	1.392	-62.0569
13:32:05.650	1.393	-60.6298
13:32:05.651	1.394	-59.3016
13:32:05.652	1.395	-58.0668
13:32:05.653	1.396	-56.895
13:32:05.654	1.397	-55.7447
13:32:05.655	1.398	-54.5692
13:32:05.656	1.399	-53.3218
13:32:05.657	1.4	-51.9643
13:32:05.658	1.401	-50.4748
13:32:05.659	1.402	-48.8506
13:32:05.660	1.403	-47.1082
13:32:05.661	1.404	-45.2813
13:32:05.662	1.405	-43.4121
13:32:05.663	1.406	-41.5411
13:32:05.664	1.407	-39.6984
13:32:05.665	1.408	-37.9011
13:32:05.666	1.409	-36.1522
13:32:05.667	1.41	-34.4431
13:32:05.668	1.411	-32.7598
13:32:05.669	1.412	-31.0892
13:32:05.670	1.413	-29.4181
13:32:05.671	1.414	-27.7287
13:32:05.672	1.415	-25.9957
13:32:05.673	1.416	-24.1893
13:32:05.674	1.417	-22.2821
13:32:05.675	1.418	-20.2552
13:32:05.676	1.419	-18.1024
13:32:05.677	1.42	-15.83
13:32:05.678	1.421	-13.4574
13:32:05.679	1.422	-11.0203
13:32:05.680	1.423	-8.57298
13:32:05.681	1.424	-6.18531
13:32:05.682	1.425	-3.93192
13:32:05.683	1.426	-1.87953
13:32:05.684	1.427	-0.0770807
13:32:05.685	1.428	1.44784
13:32:05.686	1.429	2.68548
13:32:05.687	1.43	3.63631
13:32:05.688	1.431	4.30447
13:32:05.689	1.432	4.69433
13:32:05.690	1.433	4.80766
13:32:05.691	1.434	4.64024
13:32:05.692	1.435	4.18086
13:32:05.693	1.436	3.41413
13:32:05.694	1.437	2.32713
13:32:05.695	1.438	0.920451
13:32:05.696	1.439	-0.781387
13:32:05.697	1.44	-2.729
13:32:05.698	1.441	-4.85881
13:32:05.699	1.442	-7.10956
13:32:05.700	1.443	-9.43745
13:32:05.701	1.444	-11.821
13:32:05.702	1.445	-14.2546
13:32:05.703	1.446	-16.7379
13:32:05.704	1.447	-19.2675
13:32:05.705	1.448	-21.8282
13:32:05.706	1.449	-24.3892
13:32:05.707	1.45	-26.9118
13:32:05.708	1.451	-29.3638
13:32:05.709	1.452	-31.7301
13:32:05.710	1.453	-34.0175
13:32:05.711	1.454	-36.2489
13:32:05.712	1.455	-38.4484
13:32:05.713	1.456	-40.6274
13:32:05.714	1.457	-42.7771
13:32:05.715	1.458	-44.8719
13:32:05.716	1.459	-46.8786
13:32:05.717	1.46	-48.766
13:32:05.718	1.461	-50.5111
13:32:05.719	1.462	-52.1011
13:32:05.720	1.463	-53.5332
13:32:05.721	1.464	-54.8138
13:32:05.722	1.465	-55.9569
13:32:05.723	1.466	-56.9786
13:32:05.724	1.467	-57.8941
13:32:05.725	1.468	-58.7195
13:32:05.726	1.469	-59.4732
13:32:05.727	1.47	-60.1741
13:32:05.728	1.471	-60.8391
13:32:05.729	1.472	-61.4835
13:32:05.730	1.473	-62.1213
13:32:05.731	1.474	-62.7665
13:32:05.732	1.475	-63.4371
13:32:05.733	1.476	-64.155
13:32:05.734	1.477	-64.9382
13:32:05.735	1.478	-65.794
13:32:05.736	1.479	-66.7206
13:32:05.737	1.48	-67.7127
13:32:05.738	1.481	-68.7664
13:32:05.739	1.482	-69.8785
13:32:05.740	1.483	-71.0343
13:32:05.741	1.484	-72.1973
13:32:05.742	1.485	-73.3116
13:32:05.743	1.486	-74.3152
13:32:05.744	1.487	-75.1507
13:32:05.745	1.488	-75.7679
13:32:05.746	1.489	-76.1234
13:32:05.747	1.49	-76.1847
13:32:05.748	1.491	-75.937
13:32:05.749	1.492	-75.3871
13:32:05.750	1.493	-74.5623
13:32:05.751	1.494	-73.5085
13:32:05.752	1.495	-72.2922
13:32:05.753	1.496	-71.0005
13:32:05.754	1.497	-69.7321
13:32:05.755	1.498	-68.5823
13:32:05.756	1.499	-67.6288
13:32:05.757	1.5	-66.9238
13:32:05.758	1.501	-66.4912
13:32:05.759	1.502	-66.3279
13:32:05.760	1.503	-66.4072
13:32:05.761	1.504	-66.6859
13:32:05.762	1.505	-67.1166
13:32:05.763	1.506	-67.6602
13:32:05.764	1.507	-68.2915
13:32:05.765	1.508	-68.9993
13:32:05.766	1.509	-69.7816
13:32:05.767	1.51	-70.6358
13:32:05.768	1.511	-71.5499
13:32:05.769	1.512	-72.4992
13:32:05.770	1.513	-73.4467
13:32:05.771	1.514	-74.3489
13:32:05.772	1.515	-75.1685
13:32:05.773	1.516	-75.8879
13:32:05.774	1.517	-76.5101
13:32:05.775	1.518	-77.0443
13:32:05.776	1.519	-77.4876
13:32:05.777	1.52	-77.8165
13:32:05.778	1.521	-77.9909
13:32:05.779	1.522	-77.9601
13:32:05.780	1.523	-77.6645
13:32:05.781	1.524	-77.0341
13:32:05.782	1.525	-75.9868
13:32:05.783	1.526	-74.4252
13:32:05.784	1.527	-72.2377
13:32:05.785	1.528	-69.3057
13:32:05.786	1.529	-65.5144
13:32:05.787	1.53	-60.7593
13:32:05.788	1.531	-54.9494
13:32:05.789	1.532	-48.0075
13:32:05.790	1.533	-39.8707
13:32:05.791	1.534	-30.4924
13:32:05.792	1.535	-19.8462
13:32:05.793	1.536	-7.93167
13:32:05.794	1.537	5.22659
13:32:05.795	1.538	19.583
13:32:05.796	1.539	35.0733
13:32:05.797	1.54	51.6136
13:32:05.798	1.541	69.0985
13:32:05.799	1.542	87.4016
13:32:05.800	1.543	106.376
13:32:05.801	1.544	125.851
13:32:05.802	1.545	145.628
13:32:05.803	1.546	165.478
13:32:05.804	1.547	185.153
13:32:05.805	1.548	204.394
13:32:05.806	1.549	222.933
13:32:05.807	1.55	240.5
13:32:05.808	1.551	256.823
13:32:05.809	1.552	271.629
13:32:05.810	1.553	284.66
13:32:05.811	1.554	295.683
13:32:05.812	1.555	304.499
13:32:05.813	1.556	310.945
13:32:05.814	1.557	314.888	mark
13:32:05.815	1.558	316.223
13:32:05.816	1.559	314.876
13:32:05.817	1.56	310.811
13:32:05.818	1.561	304.034
13:32:05.819	1.562	294.6
13:32:05.820	1.563	282.613
13:32:05.821	1.564	268.221
13:32:05.822	1.565	251.614
13:32:05.823	1.566	233.013
13:32:05.824	1.567	212.667
13:32:05.825	1.568	190.838
13:32:05.826	1.569	167.796
13:32:05.827	1.57	143.815
13:32:05.828	1.571	119.179
13:32:05.829	1.572	94.1907
13:32:05.830	1.573	69.175
13:32:05.831	1.574	44.4728
13:32:05.832	1.575	20.4222
13:32:05.833	1.576	-2.66306
13:32:05.834	1.577	-24.5065
13:32:05.835	1.578	-44.8754
13:32:05.836	1.579	-63.5849
13:32:05.837	1.58	-80.5015
13:32:05.838	1.581	-95.5416
13:32:05.839	1.582	-108.667
13:32:05.840	1.583	-119.885
13:32:05.841	1.584	-129.251
13:32:05.842	1.585	-136.865
13:32:05.843	1.586	-142.851
13:32:05.844	1.587	-147.341
13:32:05.845	1.588	-150.454
13:32:05.846	1.589	-152.304
13:32:05.847	1.59	-152.991
13:32:05.848	1.591	-152.61
13:32:05.849	1.592	-151.253
13:32:05.850	1.593	-149.018
13:32:05.851	1.594	-146.025
13:32:05.852	1.595	-142.413
13:32:05.853	1.596	-138.335
13:32:05.854	1.597	-133.929
13:32:05.855	1.598	-129.31
13:32:05.856	1.599	-124.559
13:32:05.857	1.6	-119.731
13:32:05.858	1.601	-114.863
13:32:05.859	1.602	-109.99
13:32:05.860	1.603	-105.143
13:32:05.861	1.604	-100.351
13:32:05.862	1.605	-95.6292
13:32:05.863	1.606	-90.9744
13:32:05.864	1.607	-86.3687
13:32:05.865	1.608	-81.7826
13:32:05.866	1.609	-77.1827
13:32:05.867	1.61	-72.545
13:32:05.868	1.611	-67.8638
13:32:05.869	1.612	-63.1479
13:32:05.870	1.613	-58.4127
13:32:05.871	1.614	-53.6767
13:32:05.872	1.615	-48.9624
13:32:05.873	1.616	-44.2939
13:32:05.874	1.617	-39.693
13:32:05.875	1.618	-35.1814
13:32:05.876	1.619	-30.7861
13:32:05.877	1.62	-26.5438
13:32:05.878	1.621	-22.4989
13:32:05.879	1.622	-18.6955
13:32:05.880	1.623	-15.1684
13:32:05.881	1.624	-11.9421
13:32:05.882	1.625	-9.03203
13:32:05.883	1.626	-6.4411
13:32:05.884	1.627	-4.15422
13:32:05.885	1.628	-2.13973
13:32:05.886	1.629	-0.360261
13:32:05.887	1.63	1.21803
13:32:05.888	1.631	2.62792
13:32:05.889	1.632	3.90953
13:32:05.890	1.633	5.11052
13:32:05.891	1.634	6.27689
13:32:05.892	1.635	7.44648
13:32:05.893	1.636	8.65017
13:32:05.894	1.637	9.91504
13:32:05.895	1.638	11.2669
13:32:05.896	1.639	12.731
13:32:05.897	1.64	14.3269
13:32:05.898	1.641	16.0595
13:32:05.899	1.642	17.9152
13:32:05.900	1.643	19.8666
13:32:05.901	1.644	21.8766
13:32:05.902	1.645	23.9003
13:32:05.903	1.646	25.8906
13:32:05.904	1.647	27.8074
13:32:05.905	1.648	29.6212
13:32:05.906	1.649	31.3101
13:32:05.907	1.65	32.8531
13:32:05.908	1.651	34.2286
13:32:05.909	1.652	35.4162
13:32:05.910	1.653	36.3983
13:32:05.911	1.654	37.1612
13:32:05.912	1.655	37.6977
13:32:05.913	1.656	38.0086
13:32:05.914	1.657	38.0998
13:32:05.915	1.658	37.9819
13:32:05.916	1.659	37.6795
13:32:05.917	1.66	37.2443
13:32:05.918	1.661	36.7599
13:32:05.919	1.662	36.3309
13:32:05.920	1.663	36.0603
13:32:05.921	1.664	36.0311
13:32:05.922	1.665	36.296
13:32:05.923	1.666	36.8742
13:32:05.924	1.667	37.7548
13:32:05.925	1.668	38.9094
13:32:05.926	1.669	40.3033
13:32:05.927	1.67	41.8985
13:32:05.928	1.671	43.6528
13:32:05.929	1.672	45.5194
13:32:05.930	1.673	47.4476
13:32:05.931	1.674	49.3895
13:32:05.932	1.675	51.3085
13:32:05.933	1.676	53.187
13:32:05.934	1.677	55.0238
13:32:05.935	1.678	56.8243
13:32:05.936	1.679	58.5922
13:32:05.937	1.68	60.3273
13:32:05.938	1.681	62.0282
13:32:05.939	1.682	63.6939
13:32:05.940	1.683	65.3215
13:32:05.941	1.684	66.9068
13:32:05.942	1.685	68.4509
13:32:05.943	1.686	69.9677
13:32:05.944	1.687	71.4832
13:32:05.945	1.688	73.0238
13:32:05.946	1.689	74.6074
13:32:05.947	1.69	76.2428
13:32:05.948	1.691	77.937
13:32:05.949	1.692	79.7005
13:32:05.950	1.693	81.5445
13:32:05.951	1.694	83.4735
13:32:05.952	1.695	85.4777
13:32:05.953	1.696	87.5305
13:32:05.954	1.697	89.5939
13:32:05.955	1.698	91.6331
13:32:05.956	1.699	93.6275
13:32:05.957	1.7	95.5716
13:32:05.958	1.701	97.4674
13:32:05.959	1.702	99.3192
13:32:05.960	1.703	101.132
13:32:05.961	1.704	102.912
13:32:05.962	1.705	104.677
13:32:05.963	1.706	106.452
13:32:05.964	1.707	108.265
13:32:05.965	1.708	110.142
13:32:05.966	1.709	112.109
13:32:05.967	1.71	114.199
13:32:05.968	1.711	116.449
13:32:05.969	1.712	118.901
13:32:05.970	1.713	121.594
13:32:05.971	1.714	124.558
13:32:05.972	1.715	127.805
13:32:05.973	1.716	131.33
13:32:05.974	1.717	135.111
13:32:05.975	1.718	139.116
13:32:05.976	1.719	143.314
13:32:05.977	1.72	147.682
13:32:05.978	1.721	152.206
13:32:05.979	1.722	156.877
13:32:05.980	1.723	161.68
13:32:05.981	1.724	166.591
13:32:05.982	1.725	171.58
13:32:05.983	1.726	176.618
13:32:05.984	1.727	181.686
13:32:05.985	1.728	186.767
13:32:05.986	1.729	191.852
13:32:05.987	1.73	196.926
13:32:05.988	1.731	201.967
13:32:05.989	1.732	206.95
13:32:05.990	1.733	211.849
13:32:05.991	1.734	216.646
13:32:05.992	1.735	221.329
13:32:05.993	1.736	225.891
13:32:05.994	1.737	230.328
13:32:05.995	1.738	234.645
13:32:05.996	1.739	238.858
13:32:05.997	1.74	242.997
13:32:05.998	1.741	247.092
13:32:05.999	1.742	251.173
13:32:06.000	1.743	255.263
13:32:06.001	1.744	259.375
13:32:06.002	1.745	263.515
13:32:06.003	1.746	267.682
13:32:06.004	1.747	271.878
13:32:06.005	1.748	276.105
13:32:06.006	1.749	280.37
13:32:06.007	1.75	284.665
13:32:06.008	1.751	288.968
13:32:06.009	1.752	293.242
13:32:06.010	1.753	297.453
13:32:06.011	1.754	301.585
13:32:06.012	1.755	305.633
13:32:06.013	1.756	309.597
13:32:06.014	1.757	313.469
13:32:06.015	1.758	317.235
13:32:06.016	1.759	320.877
13:32:06.017	1.76	324.378
13:32:06.018	1.761	327.72
13:32:06.019	1.762	330.882
13:32:06.020	1.763	333.835
13:32:06.021	1.764	336.546
13:32:06.022	1.765	338.991
13:32:06.023	1.766	341.156
13:32:06.024	1.767	343.031
13:32:06.025	1.768	344.608
13:32:06.026	1.769	345.877
13:32:06.027	1.77	346.831
13:32:06.028	1.771	347.469
13:32:06.029	1.772	347.799
13:32:06.030	1.773	347.832
13:32:06.031	1.774	347.581
13:32:06.032	1.775	347.061
13:32:06.033	1.776	346.29
13:32:06.034	1.777	345.28
13:32:06.035	1.778	344.036
13:32:06.036	1.779	342.554
13:32:06.037	1.78	340.828
13:32:06.038	1.781	338.847
13:32:06.039	1.782	336.597
13:32:06.040	1.783	334.065
13:32:06.041	1.784	331.24
13:32:06.042	1.785	328.116
13:32:06.043	1.786	324.69
13:32:06.044	1.787	320.963
13:32:06.045	1.788	316.944
13:32:06.046	1.789	312.646
13:32:06.047	1.79	308.082
13:32:06.048	1.791	303.264
13:32:06.049	1.792	298.21
13:32:06.050	1.793	292.947
13:32:06.051	1.794	287.507
13:32:06.052	1.795	281.92
13:32:06.053	1.796	276.207
13:32:06.054	1.797	270.386
13:32:06.055	1.798	264.475
13:32:06.056	1.799	258.495
13:32:06.057	1.8	252.463
13:32:06.058	1.801	246.393
13:32:06.059	1.802	240.29
13:32:06.060	1.803	234.156
13:32:06.061	1.804	227.994
13:32:06.062	1.805	221.814
13:32:06.063	1.806	215.633
13:32:06.064	1.807	209.468
13:32:06.065	1.808	203.333
13:32:06.066	1.809	197.24
13:32:06.067	1.81	191.193
13:32:06.068	1.811	185.196
13:32:06.069	1.812	179.25
13:32:06.070	1.813	173.352
13:32:06.071	1.814	167.489
13:32:06.072	1.815	161.642
13:32:06.073	1.816	155.791
13:32:06.074	1.817	149.927
13:32:06.075	1.818	144.059
13:32:06.076	1.819	138.212
13:32:06.077	1.82	132.421
13:32:06.078	1.821	126.721
13:32:06.079	1.822	121.14
13:32:06.080	1.823	115.696
13:32:06.081	1.824	110.402
13:32:06.082	1.825	105.27
13:32:06.083	1.826	100.308
13:32:06.084	1.827	95.5303
13:32:06.085	1.828	90.9487
13:32:06.086	1.829	86.5736
13:32:06.087	1.83	82.4114
13:32:06.088	1.831	78.4657
13:32:06.089	1.832	74.741
13:32:06.090	1.833	71.2447
13:32:06.091	1.834	67.9834
13:32:06.092	1.835	64.9543
13:32:06.093	1.836	62.1377
13:32:06.094	1.837	59.4965
13:32:06.095	1.838	56.9805
13:32:06.096	1.839	54.5328
13:32:06.097	1.84	52.099
13:32:06.098	1.841	49.6364
13:32:06.099	1.842	47.1172
13:32:06.100	1.843	44.5258
13:32:06.101	1.844	41.855
13:32:06.102	1.845	39.1022
13:32:06.103	1.846	36.2641
13:32:06.104	1.847	33.3355
13:32:06.105	1.848	30.312
13:32:06.106	1.849	27.1986
13:32:06.107	1.85	24.0157
13:32:06.108	1.851	20.8047
13:32:06.109	1.852	17.6294
13:32:06.110	1.853	14.5701
13:32:06.111	1.854	11.7075
13:32:06.112	1.855	9.10465
13:32:06.113	1.856	6.79314
13:32:06.114	1.857	4.77366
13:32:06.115	1.858	3.02905
13:32:06.116	1.859	1.53631
13:32:06.117	1.86	0.268205
13:32:06.118	1.861	-0.808824
13:32:06.119	1.862	-1.7351
13:32:06.120	1.863	-2.55555
13:32:06.121	1.864	-3.31144
13:32:06.122	1.865	-4.02963
13:32:06.123	1.866	-4.7183
13:32:06.124	1.867	-5.36932
13:32:06.125	1.868	-5.96511
13:32:06.126	1.869	-6.48905
13:32:06.127	1.87	-6.9349
13:32:06.128	1.871	-7.30879
13:32:06.129	1.872	-7.62285
13:32:06.130	1.873	-7.88801
13:32:06.131	1.874	-8.11359
13:32:06.132	1.875	-8.31194
13:32:06.133	1.876	-8.50102
13:32:06.134	1.877	-8.7024
13:32:06.135	1.878	-8.9375
13:32:06.136	1.879	-9.2253
13:32:06.137	1.88	-9.58308
13:32:06.138	1.881	-10.028
13:32:06.139	1.882	-10.5768
13:32:06.140	1.883	-11.2436
13:32:06.141	1.884	-12.0362
13:32:06.142	1.885	-12.9549
13:32:06.143	1.886	-13.9935
13:32:06.144	1.887	-15.1438
13:32:06.145	1.888	-16.3934
13:32:06.146	1.889	-17.715
13:32:06.147	1.89	-19.0566
13:32:06.148	1.891	-20.3465
13:32:06.149	1.892	-21.511
13:32:06.150	1.893	-22.4887
13:32:06.151	1.894	-23.238
13:32:06.152	1.895	-23.7397
13:32:06.153	1.896	-23.9975
13:32:06.154	1.897	-24.0305
13:32:06.155	1.898	-23.8613
13:32:06.156	1.899	-23.5098
13:32:06.157	1.9	-22.9919
13:32:06.158	1.901	-22.3212
13:32:06.159	1.902	-21.5086
13:32:06.160	1.903	-20.564
13:32:06.161	1.904	-19.4969
13:32:06.162	1.905	-18.3155
13:32:06.163	1.906	-17.0257
13:32:06.164	1.907	-15.637
13:32:06.165	1.908	-14.1739
13:32:06.166	1.909	-12.6791
13:32:06.167	1.91	-11.2043
13:32:06.168	1.911	-9.801
13:32:06.169	1.912	-8.51474
13:32:06.170	1.913	-7.38079
13:32:06.171	1.914	-6.41503
13:32:06.172	1.915	-5.60712
13:32:06.173	1.916	-4.92359
13:32:06.174	1.917	-4.32078
13:32:06.175	1.918	-3.761
13:32:06.176	1.919	-3.22259
13:32:06.177	1.92	-2.69702
13:32:06.178	1.921	-2.1783
13:32:06.179	1.922	-1.65699
13:32:06.180	1.923	-1.12313
13:32:06.181	1.924	-0.575258
13:32:06.182	1.925	-0.0272534
13:32:06.183	1.926	0.494269
13:32:06.184	1.927	0.957345
13:32:06.185	1.928	1.32672
13:32:06.186	1.929	1.56303
13:32:06.187	1.93	1.62908
13:32:06.188	1.931	1.50179
13:32:06.189	1.932	1.1795
13:32:06.190	1.933	0.680209
13:32:06.191	1.934	0.0350061
13:32:06.192	1.935	-0.717544
13:32:06.193	1.936	-1.53717
13:32:06.194	1.937	-2.39085
13:32:06.195	1.938	-3.25929
13:32:06.196	1.939	-4.13505
13:32:06.197	1.94	-5.01703
13:32:06.198	1.941	-5.90954
13:32:06.199	1.942	-6.82705
13:32:06.200	1.943	-7.79767
13:32:06.201	1.944	-8.85479
13:32:06.202	1.945	-10.0178
13:32:06.203	1.946	-11.2765
13:32:06.204	1.947	-12.5906
13:32:06.205	1.948	-13.9006
13:32:06.206	1.949	-15.1431
13:32:06.207	1.95	-16.2613
13:32:06.208	1.951	-17.2084
13:32:06.209	1.952	-17.9447
13:32:06.210	1.953	-18.438
13:32:06.211	1.954	-18.6668
13:32:06.212	1.955	-18.6226
13:32:06.213	1.956	-18.3084
13:32:06.214	1.957	-17.7383
13:32:06.215	1.958	-16.9378
13:32:06.216	1.959	-15.9435
13:32:06.217	1.96	-14.8007
13:32:06.218	1.961	-13.5533
13:32:06.219	1.962	-12.2321
13:32:06.220	1.963	-10.8464
13:32:06.221	1.964	-9.38556
13:32:06.222	1.965	-7.82984
13:32:06.223	1.966	-6.16291
13:32:06.224	1.967	-4.37833
13:32:06.225	1.968	-2.48053
13:32:06.226	1.969	-0.483592
13:32:06.227	1.97	1.59029
13:32:06.228	1.971	3.7149
13:32:06.229	1.972	5.86597
13:32:06.230	1.973	8.02345
13:32:06.231	1.974	10.1672
13:32:06.232	1.975	12.2705
13:32:06.233	1.976	14.2981
13:32:06.234	1.977	16.2113
13:32:06.235	1.978	17.9773
13:32:06.236	1.979	19.5769
13:32:06.237	1.98	21.0034
13:32:06.238	1.981	22.2555
13:32:06.239	1.982	23.3282
13:32:06.240	1.983	24.2102
13:32:06.241	1.984	24.8869
13:32:06.242	1.985	25.3454
13:32:06.243	1.986	25.5791
13:32:06.244	1.987	25.5884
13:32:06.245	1.988	25.3824
13:32:06.246	1.989	24.9778
13:32:06.247	1.99	24.3987
13:32:06.248	1.991	23.6723
13:32:06.249	1.992	22.8235
13:32:06.250	1.993	21.8727
13:32:06.251	1.994	20.8368
13:32:06.252	1.995	19.7345
13:32:06.253	1.996	18.5927
13:32:06.254	1.997	17.4465
13:32:06.255	1.998	16.3297
13:32:06.256	1.999	15.266
13:32:06.257	2	14.2735
13:32:06.258	2.001	13.375
13:32:06.258	2.002	12.6019
13:32:06.260	2.003	11.9902
13:32:06.261	2.004	11.5712
13:32:06.262	2.005	11.3651
13:32:06.262	2.006	11.3771
13:32:06.264	2.007	11.5959
13:32:06.265	2.008	11.991
13:32:06.266	2.009	12.5106
13:32:06.266	2.01	13.0865
13:32:06.268	2.011	13.6473
13:32:06.269	2.012	14.1323
13:32:06.270	2.013	14.4979
13:32:06.270	2.014	14.7175
13:32:06.272	2.015	14.7768
13:32:06.273	2.016	14.6675
13:32:06.274	2.017	14.3848
13:32:06.274	2.018	13.9271
13:32:06.276	2.019	13.2983
13:32:06.277	2.02	12.5076
13:32:06.278	2.021	11.5708
13:32:06.278	2.022	10.5104
13:32:06.280	2.023	9.35701
13:32:06.281	2.024	8.14781
13:32:06.282	2.025	6.92348
13:32:06.282	2.026	5.72501
13:32:06.284	2.027	4.59052
13:32:06.285	2.028	3.55214
13:32:06.286	2.029	2.63293
13:32:06.286	2.03	1.84576
13:32:06.288	2.031	1.19434
13:32:06.289	2.032	0.674527
13:32:06.290	2.033	0.275122
13:32:06.290	2.034	-0.0205813
13:32:06.292	2.035	-0.232275
13:32:06.293	2.036	-0.379099
13:32:06.294	2.037	-0.475128
13:32:06.294	2.038	-0.526184
13:32:06.296	2.039	-0.53322
13:32:06.297	2.04	-0.50286
13:32:06.298	2.041	-0.45307
13:32:06.298	2.042	-0.402223
13:32:06.300	2.043	-0.350723
13:32:06.301	2.044	-0.275317
13:32:06.302	2.045	-0.141263
13:32:06.302	2.046	0.0799978
13:32:06.304	2.047	0.400312
13:32:06.305	2.048	0.813528
13:32:06.306	2.049	1.29975
13:32:06.307	2.05	1.83225
13:32:06.308	2.051	2.38404
13:32:06.309	2.052	2.93236
13:32:06.310	2.053	3.46207
13:32:06.311	2.054	3.96906
13:32:06.312	2.055	4.46115
13:32:06.313	2.056	4.95287
13:32:06.314	2.057	5.45523
13:32:06.315	2.058	5.96691
13:32:06.316	2.059	6.4713
13:32:06.317	2.06	6.93934
13:32:06.318	2.061	7.33593
13:32:06.319	2.062	7.62795
13:32:06.320	2.063	7.79157
13:32:06.321	2.064	7.81574
13:32:06.322	2.065	7.70063
13:32:06.323	2.066	7.45165
13:32:06.324	2.067	7.07246
13:32:06.325	2.068	6.56321
13:32:06.326	2.069	5.92603
13:32:06.327	2.07	5.17081
13:32:06.328	2.071	4.31339
13:32:06.329	2.072	3.37121
13:32:06.330	2.073	2.36615
13:32:06.331	2.074	1.33095
13:32:06.332	2.075	0.308598
13:32:06.333	2.076	-0.654885
13:32:06.334	2.077	-1.51724
13:32:06.335	2.078	-2.2445
13:32:06.336	2.079	-2.81328
13:32:06.337	2.08	-3.20945
13:32:06.338	2.081	-3.42524
13:32:06.339	2.082	-3.46038
13:32:06.340	2.083	-3.32705
13:32:06.341	2.084	-3.05234
13:32:06.342	2.085	-2.67296
13:32:06.343	2.086	-2.22382
13:32:06.344	2.087	-1.72738
13:32:06.345	2.088	-1.19134
13:32:06.346	2.089	-0.614964
13:32:06.347	2.09	0.00369859
13:32:06.348	2.091	0.663985
13:32:06.349	2.092	1.36161
13:32:06.350	2.093	2.08795
13:32:06.351	2.094	2.82674
13:32:06.352	2.095	3.55033
13:32:06.353	2.096	4.22334
13:32:06.354	2.097	4.81509
13:32:06.355	2.098	5.31106
13:32:06.356	2.099	5.71313
13:32:06.357	2.1	6.02942
13:32:06.358	2.101	6.2624
13:32:06.359	2.102	6.40459
13:32:06.360	2.103	6.44525
13:32:06.361	2.104	6.37995
13:32:06.362	2.105	6.21384
13:32:06.363	2.106	5.95892
13:32:06.364	2.107	5.63123
13:32:06.365	2.108	5.24998
13:32:06.366	2.109	4.83693
13:32:06.367	2.11	4.41421
13:32:06.368	2.111	4.00188
13:32:06.369	2.112	3.61573
13:32:06.370	2.113	3.26399
13:32:06.371	2.114	2.94388
13:32:06.372	2.115	2.64272
13:32:06.373	2.116	2.34449
13:32:06.374	2.117	2.03804
13:32:06.375	2.118	1.72151
13:32:06.376	2.119	1.39887
13:32:06.377	2.12	1.07055
13:32:06.378	2.121	0.726944
13:32:06.379	2.122	0.352863
13:32:06.380	2.123	-0.0604246
13:32:06.381	2.124	-0.509097
13:32:06.382	2.125	-0.982813
13:32:06.383	2.126	-1.47276
13:32:06.384	2.127	-1.97247
13:32:06.385	2.128	-2.47375
13:32:06.386	2.129	-2.96442
13:32:06.387	2.13	-3.4289
13:32:06.388	2.131	-3.84761
13:32:06.389	2.132	-4.19529
13:32:06.390	2.133	-4.44293
13:32:06.391	2.134	-4.5629
13:32:06.392	2.135	-4.53214
13:32:06.393	2.136	-4.33401
13:32:06.394	2.137	-3.9627
13:32:06.395	2.138	-3.42738
13:32:06.396	2.139	-2.75181
13:32:06.397	2.14	-1.96961
13:32:06.398	2.141	-1.11692
13:32:06.399	2.142	-0.225963
13:32:06.400	2.143	0.677073
13:32:06.401	2.144	1.57264
13:32:06.402	2.145	2.45045
13:32:06.403	2.146	3.31025
13:32:06.404	2.147	4.15562
13:32:06.405	2.148	4.98428
13:32:06.406	2.149	5.78443
13:32:06.407	2.15	6.54004
13:32:06.408	2.151	7.23811
13:32:06.409	2.152	7.87147
13:32:06.410	2.153	8.43714
13:32:06.411	2.154	8.93431
13:32:06.412	2.155	9.36511
13:32:06.413	2.156	9.73715
13:32:06.414	2.157	10.0645
13:32:06.415	2.158	10.3671
13:32:06.416	2.159	10.6711
13:32:06.417	2.16	11.0068
13:32:06.418	2.161	11.4017
13:32:06.419	2.162	11.873
13:32:06.420	2.163	12.4245
13:32:06.421	2.164	13.0502
13:32:06.422	2.165	13.7389
13:32:06.423	2.166	14.4771
13:32:06.424	2.167	15.2504
13:32:06.425	2.168	16.0432
13:32:06.426	2.169	16.8408
13:32:06.427	2.17	17.6374
13:32:06.428	2.171	18.4415
13:32:06.429	2.172	19.2737
13:32:06.430	2.173	20.1549
13:32:06.431	2.174	21.0983
13:32:06.432	2.175	22.1121
13:32:06.433	2.176	23.2071
13:32:06.434	2.177	24.3974
13:32:06.435	2.178	25.6926
13:32:06.436	2.179	27.0917
13:32:06.437	2.18	28.5883
13:32:06.438	2.181	30.1793
13:32:06.439	2.182	31.8623
13:32:06.440	2.183	33.6207
13:32:06.441	2.184	35.4082
13:32:06.442	2.185	37.1511
13:32:06.443	2.186	38.7695
13:32:06.444	2.187	40.2034
13:32:06.445	2.188	41.4237
13:32:06.446	2.189	42.4303
13:32:06.447	2.19	43.2469
13:32:06.448	2.191	43.911
13:32:06.449	2.192	44.4605
13:32:06.450	2.193	44.9245
13:32:06.451	2.194	45.3245
13:32:06.452	2.195	45.6791
13:32:06.453	2.196	46.0099
13:32:06.454	2.197	46.342
13:32:06.455	2.198	46.7034
13:32:06.456	2.199	47.1239
13:32:06.457	2.2	47.6324
13:32:06.458	2.201	48.2486
13:32:06.459	2.202	48.9738
13:32:06.460	2.203	49.7909
13:32:06.461	2.204	50.6737
13:32:06.462	2.205	51.6024
13:32:06.463	2.206	52.5699
13:32:06.464	2.207	53.5782
13:32:06.465	2.208	54.6299
13:32:06.466	2.209	55.7254
13:32:06.467	2.21	56.8619
13:32:06.468	2.211	58.0329
13:32:06.469	2.212	59.2272
13:32:06.470	2.213	60.4307
13:32:06.471	2.214	61.6328
13:32:06.472	2.215	62.8307
13:32:06.473	2.216	64.0267
13:32:06.474	2.217	65.2206
13:32:06.475	2.218	66.3999
13:32:06.476	2.219	67.5367
13:32:06.477	2.22	68.5956
13:32:06.478	2.221	69.5489
13:32:06.479	2.222	70.3848
13:32:06.480	2.223	71.0985
13:32:06.481	2.224	71.6806
13:32:06.482	2.225	72.1132
13:32:06.483	2.226	72.3775
13:32:06.484	2.227	72.4631
13:32:06.485	2.228	72.3718
13:32:06.486	2.229	72.111
13:32:06.487	2.23	71.6834
13:32:06.488	2.231	71.0878
13:32:06.489	2.232	70.3302
13:32:06.490	2.233	69.4338
13:32:06.491	2.234	68.4341
13:32:06.492	2.235	67.3671
13:32:06.493	2.236	66.2594
13:32:06.494	2.237	65.1262
13:32:06.495	2.238	63.9728
13:32:06.496	2.239	62.797
13:32:06.497	2.24	61.5896
13:32:06.498	2.241	60.3347
13:32:06.499	2.242	59.012
13:32:06.500	2.243	57.6003
13:32:06.501	2.244	56.0771
13:32:06.502	2.245	54.4147
13:32:06.503	2.246	52.5776
13:32:06.504	2.247	50.5284
13:32:06.505	2.248	48.241
13:32:06.506	2.249	45.7128
13:32:06.507	2.25	42.9705
13:32:06.508	2.251	40.0685
13:32:06.509	2.252	37.0788
13:32:06.510	2.253	34.0762
13:32:06.511	2.254	31.1246
13:32:06.512	2.255	28.2748
13:32:06.513	2.256	25.5684
13:32:06.514	2.257	23.0411
13:32:06.515	2.258	20.7242
13:32:06.516	2.259	18.6518
13:32:06.517	2.26	16.8663
13:32:06.518	2.261	15.4123
13:32:06.519	2.262	14.3244
13:32:06.520	2.263	13.622
13:32:06.521	2.264	13.3127
13:32:06.522	2.265	13.3934
13:32:06.523	2.266	13.8465
13:32:06.524	2.267	14.6419
13:32:06.525	2.268	15.7391
13:32:06.526	2.269	17.0885
13:32:06.527	2.27	18.631
13:32:06.528	2.271	20.3009
13:32:06.529	2.272	22.0277
13:32:06.530	2.273	23.735
13:32:06.531	2.274	25.3423
13:32:06.532	2.275	26.77
13:32:06.533	2.276	27.949
13:32:06.534	2.277	28.8291
13:32:06.535	2.278	29.384
13:32:06.536	2.279	29.6115
13:32:06.537	2.28	29.5318
13:32:06.538	2.281	29.1819
13:32:06.539	2.282	28.608
13:32:06.540	2.283	27.8559
13:32:06.541	2.284	26.9657
13:32:06.542	2.285	25.9698
13:32:06.543	2.286	24.8975
13:32:06.544	2.287	23.7809
13:32:06.545	2.288	22.6591
13:32:06.546	2.289	21.5764
13:32:06.547	2.29	20.5773
13:32:06.548	2.291	19.6998
13:32:06.549	2.292	18.9646
13:32:06.550	2.293	18.3661
13:32:06.551	2.294	17.8732
13:32:06.552	2.295	17.4425
13:32:06.553	2.296	17.0338
13:32:06.554	2.297	16.6181
13:32:06.555	2.298	16.1765
13:32:06.556	2.299	15.6961
13:32:06.557	2.3	15.1689
13:32:06.558	2.301	14.5925
13:32:06.559	2.302	13.9687
13:32:06.560	2.303	13.3017
13:32:06.561	2.304	12.5972
13:32:06.562	2.305	11.8612
13:32:06.563	2.306	11.101
13:32:06.564	2.307	10.33
13:32:06.565	2.308	9.57225
13:32:06.566	2.309	8.86379
13:32:06.567	2.31	8.24835
13:32:06.568	2.311	7.76603
13:32:06.569	2.312	7.43851
13:32:06.570	2.313	7.26089
13:32:06.571	2.314	7.20677
13:32:06.572	2.315	7.24196
13:32:06.573	2.316	7.33889
13:32:06.574	2.317	7.48479
13:32:06.575	2.318	7.68032
13:32:06.576	2.319	7.93377
13:32:06.577	2.32	8.26064
13:32:06.578	2.321	8.69048
13:32:06.579	2.322	9.27383
13:32:06.580	2.323	10.0817
13:32:06.581	2.324	11.1976
13:32:06.582	2.325	12.7086
13:32:06.583	2.326	14.7059
13:32:06.584	2.327	17.2921
13:32:06.585	2.328	20.5834
13:32:06.586	2.329	24.7071
13:32:06.587	2.33	29.7937
13:32:06.588	2.331	35.9656
13:32:06.589	2.332	43.3221
13:32:06.590	2.333	51.9315
13:32:06.591	2.334	61.8286
13:32:06.592	2.335	73.0162
13:32:06.593	2.336	85.4681
13:32:06.594	2.337	99.1345
13:32:06.595	2.338	113.947
13:32:06.596	2.339	129.825
13:32:06.597	2.34	146.675
13:32:06.598	2.341	164.39
13:32:06.599	2.342	182.838
13:32:06.600	2.343	201.857
13:32:06.601	2.344	221.244
13:32:06.602	2.345	240.764
13:32:06.603	2.346	260.166
13:32:06.604	2.347	279.19
13:32:06.605	2.348	297.569
13:32:06.606	2.349	315.03
13:32:06.607	2.35	331.292
13:32:06.608	2.351	346.069
13:32:06.609	2.352	359.079
13:32:06.610	2.353	370.065
13:32:06.611	2.354	378.806
13:32:06.612	2.355	385.122
13:32:06.613	2.356	388.877
13:32:06.614	2.357	389.979	mark
13:32:06.615	2.358	388.385
13:32:06.616	2.359	384.108
13:32:06.617	2.36	377.2
13:32:06.618	2.361	367.753
13:32:06.619	2.362	355.884
13:32:06.620	2.363	341.74
13:32:06.621	2.364	325.494
13:32:06.622	2.365	307.339
13:32:06.623	2.366	287.485
13:32:06.624	2.367	266.164
13:32:06.625	2.368	243.63
13:32:06.626	2.369	220.166
13:32:06.627	2.37	196.076
13:32:06.628	2.371	171.679
13:32:06.629	2.372	147.295
13:32:06.630	2.373	123.221
13:32:06.631	2.374	99.7221
13:32:06.632	2.375	77.0387
13:32:06.633	2.376	55.3903
13:32:06.634	2.377	34.9777
13:32:06.635	2.378	15.9787
13:32:06.636	2.379	-1.4517
13:32:06.637	2.38	-17.1845
13:32:06.638	2.381	-31.1246
13:32:06.639	2.382	-43.2198
13:32:06.640	2.383	-53.4635
13:32:06.641	2.384	-61.8925
13:32:06.642	2.385	-68.5779
13:32:06.643	2.386	-73.6133
13:32:06.644	2.387	-77.1006
13:32:06.645	2.388	-79.14
13:32:06.646	2.389	-79.8278
13:32:06.647	2.39	-79.2598
13:32:06.648	2.391	-77.5387
13:32:06.649	2.392	-74.779
13:32:06.650	2.393	-71.1055
13:32:06.651	2.394	-66.6462
13:32:06.652	2.395	-61.5236
13:32:06.653	2.396	-55.8512
13:32:06.654	2.397	-49.7388
13:32:06.655	2.398	-43.2971
13:32:06.656	2.399	-36.6349
13:32:06.657	2.4	-29.8523
13:32:06.658	2.401	-23.0391
13:32:06.659	2.402	-16.2795
13:32:06.660	2.403	-9.6546
13:32:06.661	2.404	-3.23961
13:32:06.662	2.405	2.90314
13:32:06.663	2.406	8.72993
13:32:06.664	2.407	14.2173
13:32:06.665	2.408	19.3575
13:32:06.666	2.409	24.1521
13:32:06.667	2.41	28.6084
13:32:06.668	2.411	32.7408
13:32:06.669	2.412	36.5696
13:32:06.670	2.413	40.1176
13:32:06.671	2.414	43.4061
13:32:06.672	2.415	46.4593
13:32:06.673	2.416	49.3079
13:32:06.674	2.417	51.9846
13:32:06.675	2.418	54.5118
13:32:06.676	2.419	56.8947
13:32:06.677	2.42	59.1268
13:32:06.678	2.421	61.1998
13:32:06.679	2.422	63.1091
13:32:06.680	2.423	64.8529
13:32:06.681	2.424	66.4334
13:32:06.682	2.425	67.8611
13:32:06.683	2.426	69.1622
13:32:06.684	2.427	70.3762
13:32:06.685	2.428	71.5451
13:32:06.686	2.429	72.7065
13:32:06.687	2.43	73.8926
13:32:06.688	2.431	75.1335
13:32:06.689	2.432	76.4581
13:32:06.690	2.433	77.8965
13:32:06.691	2.434	79.4813
13:32:06.692	2.435	81.2447
13:32:06.693	2.436	83.2092
13:32:06.694	2.437	85.3764
13:32:06.695	2.438	87.7219
13:32:06.696	2.439	90.1987
13:32:06.697	2.44	92.7481
13:32:06.698	2.441	95.3109
13:32:06.699	2.442	97.8345
13:32:06.700	2.443	100.275
13:32:06.701	2.444	102.592
13:32:06.702	2.445	104.744
13:32:06.703	2.446	106.693
13:32:06.704	2.447	108.419
13:32:06.705	2.448	109.93
13:32:06.706	2.449	111.252
13:32:06.707	2.45	112.412
13:32:06.708	2.451	113.427
13:32:06.709	2.452	114.292
13:32:06.710	2.453	114.986
13:32:06.711	2.454	115.486
13:32:06.712	2.455	115.789
13:32:06.713	2.456	115.922
13:32:06.714	2.457	115.942
13:32:06.715	2.458	115.913
13:32:06.716	2.459	115.894
13:32:06.717	2.46	115.927
13:32:06.718	2.461	116.041
13:32:06.719	2.462	116.257
13:32:06.720	2.463	116.592
13:32:06.721	2.464	117.063
13:32:06.722	2.465	117.685
13:32:06.723	2.466	118.474
13:32:06.724	2.467	119.441
13:32:06.725	2.468	120.586
13:32:06.726	2.469	121.898
13:32:06.727	2.47	123.357
13:32:06.728	2.471	124.945
13:32:06.729	2.472	126.654
13:32:06.730	2.473	128.475
13:32:06.731	2.474	130.398
13:32:06.732	2.475	132.403
13:32:06.733	2.476	134.467
13:32:06.734	2.477	136.561
13:32:06.735	2.478	138.655
13:32:06.736	2.479	140.718
13:32:06.737	2.48	142.713
13:32:06.738	2.481	144.608
13:32:06.739	2.482	146.378
13:32:06.740	2.483	148.015
13:32:06.741	2.484	149.517
13:32:06.742	2.485	150.89
13:32:06.743	2.486	152.143
13:32:06.744	2.487	153.292
13:32:06.745	2.488	154.369
13:32:06.746	2.489	155.418
13:32:06.747	2.49	156.491
13:32:06.748	2.491	157.643
13:32:06.749	2.492	158.928
13:32:06.750	2.493	160.391
13:32:06.751	2.494	162.063
13:32:06.752	2.495	163.955
13:32:06.753	2.496	166.061
13:32:06.754	2.497	168.361
13:32:06.755	2.498	170.821
13:32:06.756	2.499	173.401
13:32:06.757	2.5	176.066
13:32:06.758	2.501	178.795
13:32:06.759	2.502	181.587
13:32:06.760	2.503	184.46
13:32:06.761	2.504	187.436
13:32:06.762	2.505	190.529
13:32:06.763	2.506	193.739
13:32:06.764	2.507	197.059
13:32:06.765	2.508	200.477
13:32:06.766	2.509	203.983
13:32:06.767	2.51	207.575
13:32:06.768	2.511	211.258
13:32:06.769	2.512	215.039
13:32:06.770	2.513	218.916
13:32:06.771	2.514	222.872
13:32:06.772	2.515	226.878
13:32:06.773	2.516	230.903
13:32:06.774	2.517	234.924
13:32:06.775	2.518	238.918
13:32:06.776	2.519	242.858
13:32:06.777	2.52	246.721
13:32:06.778	2.521	250.489
13:32:06.779	2.522	254.153
13:32:06.780	2.523	257.712
13:32:06.781	2.524	261.171
13:32:06.782	2.525	264.556
13:32:06.783	2.526	267.905
13:32:06.784	2.527	271.257
13:32:06.785	2.528	274.638
13:32:06.786	2.529	278.049
13:32:06.787	2.53	281.484
13:32:06.788	2.531	284.935
13:32:06.789	2.532	288.406
13:32:06.790	2.533	291.905
13:32:06.791	2.534	295.45
13:32:06.792	2.535	299.065
13:32:06.793	2.536	302.774
13:32:06.794	2.537	306.593
13:32:06.795	2.538	310.516
13:32:06.796	2.539	314.52
13:32:06.797	2.54	318.569
13:32:06.798	2.541	322.627
13:32:06.799	2.542	326.662
13:32:06.800	2.543	330.646
13:32:06.801	2.544	334.561
13:32:06.802	2.545	338.401
13:32:06.803	2.546	342.175
13:32:06.804	2.547	345.905
13:32:06.805	2.548	349.623
13:32:06.806	2.549	353.361
13:32:06.807	2.55	357.146
13:32:06.808	2.551	360.996
13:32:06.809	2.552	364.921
13:32:06.810	2.553	368.926
13:32:06.811	2.554	373.004
13:32:06.812	2.555	377.127
13:32:06.813	2.556	381.254
13:32:06.814	2.557	385.328
13:32:06.815	2.558	389.291
13:32:06.816	2.559	393.085
13:32:06.817	2.56	396.661
13:32:06.818	2.561	399.977
13:32:06.819	2.562	403.001
13:32:06.820	2.563	405.711
13:32:06.821	2.564	408.104
13:32:06.822	2.565	410.199
13:32:06.823	2.566	412.027
13:32:06.824	2.567	413.62
13:32:06.825	2.568	415.007
13:32:06.826	2.569	416.207
13:32:06.827	2.57	417.224
13:32:06.828	2.571	418.053
13:32:06.829	2.572	418.692
13:32:06.830	2.573	419.144
13:32:06.831	2.574	419.418
13:32:06.832	2.575	419.531
13:32:06.833	2.576	419.501
13:32:06.834	2.577	419.343
13:32:06.835	2.578	419.054
13:32:06.836	2.579	418.61
13:32:06.837	2.58	417.972
13:32:06.838	2.581	417.09
13:32:06.839	2.582	415.912
13:32:06.840	2.583	414.396
13:32:06.841	2.584	412.514
13:32:06.842	2.585	410.255
13:32:06.843	2.586	407.617
13:32:06.844	2.587	404.606
13:32:06.845	2.588	401.238
13:32:06.846	2.589	397.54
13:32:06.847	2.59	393.543
13:32:06.848	2.591	389.281
13:32:06.849	2.592	384.778
13:32:06.850	2.593	380.049
13:32:06.851	2.594	375.101
13:32:06.852	2.595	369.936
13:32:06.853	2.596	364.548
13:32:06.854	2.597	358.917
13:32:06.855	2.598	353.011
13:32:06.856	2.599	346.793
13:32:06.857	2.6	340.23
13:32:06.858	2.601	333.303
13:32:06.859	2.602	326.015
13:32:06.860	2.603	318.403
13:32:06.861	2.604	310.533
13:32:06.862	2.605	302.505
13:32:06.863	2.606	294.441
13:32:06.864	2.607	286.459
13:32:06.865	2.608	278.661
13:32:06.866	2.609	271.118
13:32:06.867	2.61	263.872
13:32:06.868	2.611	256.932
13:32:06.869	2.612	250.286
13:32:06.870	2.613	243.903
13:32:06.871	2.614	237.741
13:32:06.872	2.615	231.763
13:32:06.873	2.616	225.939
13:32:06.874	2.617	220.254
13:32:06.875	2.618	214.712
13:32:06.876	2.619	209.327
13:32:06.877	2.62	204.112
13:32:06.878	2.621	199.068
13:32:06.879	2.622	194.181
13:32:06.880	2.623	189.419
13:32:06.881	2.624	184.746
13:32:06.882	2.625	180.128
13:32:06.883	2.626	175.533
13:32:06.884	2.627	170.925
13:32:06.885	2.628	166.26
13:32:06.886	2.629	161.491
13:32:06.887	2.63	156.591
13:32:06.888	2.631	151.56
13:32:06.889	2.632	146.426
13:32:06.890	2.633	141.236
13:32:06.891	2.634	136.05
13:32:06.892	2.635	130.923
13:32:06.893	2.636	125.89
13:32:06.894	2.637	120.957
13:32:06.895	2.638	116.12
13:32:06.896	2.639	111.379
13:32:06.897	2.64	106.748
13:32:06.898	2.641	102.247
13:32:06.899	2.642	97.8979
13:32:06.900	2.643	93.7322
13:32:06.901	2.644	89.792
13:32:06.902	2.645	86.1204
13:32:06.903	2.646	82.7449
13:32:06.904	2.647	79.6702
13:32:06.905	2.648	76.8854
13:32:06.906	2.649	74.3766
13:32:06.907	2.65	72.1351
13:32:06.908	2.651	70.1571
13:32:06.909	2.652	68.4403
13:32:06.910	2.653	66.9805
13:32:06.911	2.654	65.7686
13:32:06.912	2.655	64.7871
13:32:06.913	2.656	64.0066
13:32:06.914	2.657	63.3893
13:32:06.915	2.658	62.8978
13:32:06.916	2.659	62.5012
13:32:06.917	2.66	62.1774
13:32:06.918	2.661	61.9097
13:32:06.919	2.662	61.6806
13:32:06.920	2.663	61.4662
13:32:06.921	2.664	61.2405
13:32:06.922	2.665	60.9886
13:32:06.923	2.666	60.7193
13:32:06.924	2.667	60.4649
13:32:06.925	2.668	60.2707
13:32:06.926	2.669	60.1813
13:32:06.927	2.67	60.2273
13:32:06.928	2.671	60.4182
13:32:06.929	2.672	60.7418
13:32:06.930	2.673	61.1716
13:32:06.931	2.674	61.6747
13:32:06.932	2.675	62.2162
13:32:06.933	2.676	62.7627
13:32:06.934	2.677	63.2893
13:32:06.935	2.678	63.7878
13:32:06.936	2.679	64.2663
13:32:06.937	2.68	64.7355
13:32:06.938	2.681	65.1914
13:32:06.939	2.682	65.6087
13:32:06.940	2.683	65.9471
13:32:06.941	2.684	66.1651
13:32:06.942	2.685	66.232
13:32:06.943	2.686	66.1332
13:32:06.944	2.687	65.8697
13:32:06.945	2.688	65.4482
13:32:06.946	2.689	64.8714
13:32:06.947	2.69	64.1413
13:32:06.948	2.691	63.281
13:32:06.949	2.692	62.3476
13:32:06.950	2.693	61.4197
13:32:06.951	2.694	60.5714
13:32:06.952	2.695	59.8565
13:32:06.953	2.696	59.3107
13:32:06.954	2.697	58.9605
13:32:06.955	2.698	58.8237
13:32:06.956	2.699	58.8991
13:32:06.957	2.7	59.1539
13:32:06.958	2.701	59.5313
13:32:06.959	2.702	59.9743
13:32:06.960	2.703	60.4458
13:32:06.961	2.704	60.9279
13:32:06.962	2.705	61.4072
13:32:06.963	2.706	61.8635
13:32:06.964	2.707	62.2679
13:32:06.965	2.708	62.5853
13:32:06.966	2.709	62.7777
13:32:06.967	2.71	62.8082
13:32:06.968	2.711	62.6444
13:32:06.969	2.712	62.2631
13:32:06.970	2.713	61.6561
13:32:06.971	2.714	60.837
13:32:06.972	2.715	59.8449
13:32:06.973	2.716	58.7422
13:32:06.974	2.717	57.6048
13:32:06.975	2.718	56.5118
13:32:06.976	2.719	55.5369
13:32:06.977	2.72	54.742
13:32:06.978	2.721	54.1707
13:32:06.979	2.722	53.8509
13:32:06.980	2.723	53.8048
13:32:06.981	2.724	54.0564
13:32:06.982	2.725	54.6276
13:32:06.983	2.726	55.5288
13:32:06.984	2.727	56.7526
13:32:06.985	2.728	58.2685
13:32:06.986	2.729	60.0232
13:32:06.987	2.73	61.9454
13:32:06.988	2.731	63.9574
13:32:06.989	2.732	65.9834
13:32:06.990	2.733	67.9535
13:32:06.991	2.734	69.8056
13:32:06.992	2.735	71.4874
13:32:06.993	2.736	72.9589
13:32:06.994	2.737	74.1939
13:32:06.995	2.738	75.1805
13:32:06.996	2.739	75.9182
13:32:06.997	2.74	76.4147
13:32:06.998	2.741	76.6875
13:32:06.999	2.742	76.7651
13:32:07.000	2.743	76.6846
13:32:07.001	2.744	76.4844
13:32:07.002	2.745	76.2004
13:32:07.003	2.746	75.8688
13:32:07.004	2.747	75.5308
13:32:07.005	2.748	75.2317
13:32:07.006	2.749	75.009
13:32:07.007	2.75	74.8786
13:32:07.008	2.751	74.8281
13:32:07.009	2.752	74.8229
13:32:07.010	2.753	74.8197
13:32:07.011	2.754	74.7829
13:32:07.012	2.755	74.6993
13:32:07.013	2.756	74.5848
13:32:07.014	2.757	74.479
13:32:07.015	2.758	74.4287
13:32:07.016	2.759	74.4709
13:32:07.017	2.76	74.6203
13:32:07.018	2.761	74.8698
13:32:07.019	2.762	75.2029
13:32:07.020	2.763	75.609
13:32:07.021	2.764	76.0879
13:32:07.022	2.765	76.6425
13:32:07.023	2.766	77.2697
13:32:07.024	2.767	77.9565
13:32:07.025	2.768	78.6827
13:32:07.026	2.769	79.4262
13:32:07.027	2.77	80.1705
13:32:07.028	2.771	80.9096
13:32:07.029	2.772	81.6465
13:32:07.030	2.773	82.3869
13:32:07.031	2.774	83.1315
13:32:07.032	2.775	83.8737
13:32:07.033	2.776	84.6016
13:32:07.034	2.777	85.3048
13:32:07.035	2.778	85.9794
13:32:07.036	2.779	86.6299
13:32:07.037	2.78	87.2661
13:32:07.038	2.781	87.8977
13:32:07.039	2.782	88.5294
13:32:07.040	2.783	89.161
13:32:07.041	2.784	89.7884
13:32:07.042	2.785	90.4072
13:32:07.043	2.786	91.0143
13:32:07.044	2.787	91.6095
13:32:07.045	2.788	92.1936
13:32:07.046	2.789	92.7639
13:32:07.047	2.79	93.3113
13:32:07.048	2.791	93.8196
13:32:07.049	2.792	94.2673
13:32:07.050	2.793	94.6311
13:32:07.051	2.794	94.8864
13:32:07.052	2.795	95.0055
13:32:07.053	2.796	94.9572
13:32:07.054	2.797	94.709
13:32:07.055	2.798	94.2331
13:32:07.056	2.799	93.5146
13:32:07.057	2.8	92.5544
13:32:07.058	2.801	91.3656
13:32:07.059	2.802	89.9712
13:32:07.060	2.803	88.4052
13:32:07.061	2.804	86.7138
13:32:07.062	2.805	84.9488
13:32:07.063	2.806	83.1588
13:32:07.064	2.807	81.3867
13:32:07.065	2.808	79.6704
13:32:07.066	2.809	78.0401
13:32:07.067	2.81	76.5159
13:32:07.068	2.811	75.1126
13:32:07.069	2.812	73.8495
13:32:07.070	2.813	72.7561
13:32:07.071	2.814	71.8646
13:32:07.072	2.815	71.1981
13:32:07.073	2.816	70.7634
13:32:07.074	2.817	70.5501
13:32:07.075	2.818	70.5347
13:32:07.076	2.819	70.6905
13:32:07.077	2.82	70.9996
13:32:07.078	2.821	71.4606
13:32:07.079	2.822	72.0838
13:32:07.080	2.823	72.8799
13:32:07.081	2.824	73.8517
13:32:07.082	2.825	74.9884
13:32:07.083	2.826	76.2627
13:32:07.084	2.827	77.6314
13:32:07.085	2.828	79.0403
13:32:07.086	2.829	80.4303
13:32:07.087	2.83	81.7421
13:32:07.088	2.831	82.922
13:32:07.089	2.832	83.934
13:32:07.090	2.833	84.7671
13:32:07.091	2.834	85.4353
13:32:07.092	2.835	85.9688
13:32:07.093	2.836	86.4036
13:32:07.094	2.837	86.773
13:32:07.095	2.838	87.1061
13:32:07.096	2.839	87.4285
13:32:07.097	2.84	87.7561
13:32:07.098	2.841	88.0884
13:32:07.099	2.842	88.4105
13:32:07.100	2.843	88.7062
13:32:07.101	2.844	88.9709
13:32:07.102	2.845	89.2183
13:32:07.103	2.846	89.4752
13:32:07.104	2.847	89.7705
13:32:07.105	2.848	90.1258
13:32:07.106	2.849	90.5512
13:32:07.107	2.85	91.0417
13:32:07.108	2.851	91.5776
13:32:07.109	2.852	92.1337
13:32:07.110	2.853	92.6884
13:32:07.111	2.854	93.2205
13:32:07.112	2.855	93.6955
13:32:07.113	2.856	94.0621
13:32:07.114	2.857	94.2631
13:32:07.115	2.858	94.2492
13:32:07.116	2.859	93.9862
13:32:07.117	2.86	93.4545
13:32:07.118	2.861	92.6467
13:32:07.119	2.862	91.5674
13:32:07.120	2.863	90.2341
13:32:07.121	2.864	88.6751
13:32:07.122	2.865	86.9272
13:32:07.123	2.866	85.0342
13:32:07.124	2.867	83.0437
13:32:07.125	2.868	81.0006
13:32:07.126	2.869	78.9421
13:32:07.127	2.87	76.8991
13:32:07.128	2.871	74.9012
13:32:07.129	2.872	72.9799
13:32:07.130	2.873	71.1663
13:32:07.131	2.874	69.484
13:32:07.132	2.875	67.944
13:32:07.133	2.876	66.5451
13:32:07.134	2.877	65.2824
13:32:07.135	2.878	64.1549
13:32:07.136	2.879	63.1636
13:32:07.137	2.88	62.3082
13:32:07.138	2.881	61.5873
13:32:07.139	2.882	60.9983
13:32:07.140	2.883	60.5307
13:32:07.141	2.884	60.1587
13:32:07.142	2.885	59.8439
13:32:07.143	2.886	59.5471
13:32:07.144	2.887	59.2416
13:32:07.145	2.888	58.9236
13:32:07.146	2.889	58.6133
13:32:07.147	2.89	58.3483
13:32:07.148	2.891	58.1718
13:32:07.149	2.892	58.1217
13:32:07.150	2.893	58.2236
13:32:07.151	2.894	58.4879
13:32:07.152	2.895	58.9086
13:32:07.153	2.896	59.4652
13:32:07.154	2.897	60.1269
13:32:07.155	2.898	60.8565
13:32:07.156	2.899	61.6117
13:32:07.157	2.9	62.3495
13:32:07.158	2.901	63.0311
13:32:07.159	2.902	63.6276
13:32:07.160	2.903	64.126
13:32:07.161	2.904	64.532
13:32:07.162	2.905	64.8705
13:32:07.163	2.906	65.1814
13:32:07.164	2.907	65.5139
13:32:07.165	2.908	65.9172
13:32:07.166	2.909	66.4332
13:32:07.167	2.91	67.0898
13:32:07.168	2.911	67.8998
13:32:07.169	2.912	68.8605
13:32:07.170	2.913	69.9511
13:32:07.171	2.914	71.1321
13:32:07.172	2.915	72.351
13:32:07.173	2.916	73.5524
13:32:07.174	2.917	74.685
13:32:07.175	2.918	75.7059
13:32:07.176	2.919	76.5859
13:32:07.177	2.92	77.3151
13:32:07.178	2.921	77.9
13:32:07.179	2.922	78.3564
13:32:07.180	2.923	78.7012
13:32:07.181	2.924	78.9483
13:32:07.182	2.925	79.1025
13:32:07.183	2.926	79.1587
13:32:07.184	2.927	79.11
13:32:07.185	2.928	78.9629
13:32:07.186	2.929	78.7485
13:32:07.187	2.93	78.5202
13:32:07.188	2.931	78.3376
13:32:07.189	2.932	78.2437
13:32:07.190	2.933	78.249
13:32:07.191	2.934	78.3322
13:32:07.192	2.935	78.4581
13:32:07.193	2.936	78.5938
13:32:07.194	2.937	78.7152
13:32:07.195	2.938	78.8077
13:32:07.196	2.939	78.8674
13:32:07.197	2.94	78.8985
13:32:07.198	2.941	78.9106
13:32:07.199	2.942	78.9146
13:32:07.200	2.943	78.9203
13:32:07.201	2.944	78.9361
13:32:07.202	2.945	78.9717
13:32:07.203	2.946	79.0367
13:32:07.204	2.947	79.132
13:32:07.205	2.948	79.242
13:32:07.206	2.949	79.334
13:32:07.207	2.95	79.3623
13:32:07.208	2.951	79.2802
13:32:07.209	2.952	79.0564
13:32:07.210	2.953	78.6889
13:32:07.211	2.954	78.2004
13:32:07.212	2.955	77.6199
13:32:07.213	2.956	76.9715
13:32:07.214	2.957	76.2737
13:32:07.215	2.958	75.5446
13:32:07.216	2.959	74.8043
13:32:07.217	2.96	74.0738
13:32:07.218	2.961	73.375
13:32:07.219	2.962	72.731
13:32:07.220	2.963	72.1658
13:32:07.221	2.964	71.7014
13:32:07.222	2.965	71.3561
13:32:07.223	2.966	71.1428
13:32:07.224	2.967	71.0673
13:32:07.225	2.968	71.1283
13:32:07.226	2.969	71.3188
13:32:07.227	2.97	71.6305
13:32:07.228	2.971	72.0584
13:32:07.229	2.972	72.5998
13:32:07.230	2.973	73.2491
13:32:07.231	2.974	73.9945
13:32:07.232	2.975	74.8192
13:32:07.233	2.976	75.7028
13:32:07.234	2.977	76.6182
13:32:07.235	2.978	77.5303
13:32:07.236	2.979	78.4024
13:32:07.237	2.98	79.2063
13:32:07.238	2.981	79.9254
13:32:07.239	2.982	80.5485
13:32:07.240	2.983	81.0635
13:32:07.241	2.984	81.4613
13:32:07.242	2.985	81.7407
13:32:07.243	2.986	81.9087
13:32:07.244	2.987	81.9741
13:32:07.245	2.988	81.9421
13:32:07.246	2.989	81.8143
13:32:07.247	2.99	81.5931
13:32:07.248	2.991	81.2883
13:32:07.249	2.992	80.9205
13:32:07.250	2.993	80.5158
13:32:07.251	2.994	80.097
13:32:07.252	2.995	79.6767
13:32:07.253	2.996	79.2573
13:32:07.254	2.997	78.8391
13:32:07.255	2.998	78.4323
13:32:07.256	2.999	78.0603
13:32:07.257	3	77.7523
13:32:07.258	3.001	77.5339
13:32:07.259	3.002	77.4224
13:32:07.260	3.003	77.4322
13:32:07.261	3.004	77.5824
13:32:07.262	3.005	77.9017
13:32:07.263	3.006	78.4208
13:32:07.264	3.007	79.159
13:32:07.265	3.008	80.1143
13:32:07.266	3.009	81.2616
13:32:07.267	3.01	82.5582
13:32:07.268	3.011	83.9563
13:32:07.269	3.012	85.4142
13:32:07.270	3.013	86.9022
13:32:07.271	3.014	88.4022
13:32:07.272	3.015	89.9085
13:32:07.273	3.016	91.4283
13:32:07.274	3.017	92.9755
13:32:07.275	3.018	94.5609
13:32:07.276	3.019	96.1879
13:32:07.277	3.02	97.8551
13:32:07.278	3.021	99.5614
13:32:07.279	3.022	101.309
13:32:07.280	3.023	103.099
13:32:07.281	3.024	104.928
13:32:07.282	3.025	106.795
13:32:07.283	3.026	108.697
13:32:07.284	3.027	110.638
13:32:07.285	3.028	112.615
13:32:07.286	3.029	114.623
13:32:07.287	3.03	116.65
13:32:07.288	3.031	118.681
13:32:07.289	3.032	120.684
13:32:07.290	3.033	122.621
13:32:07.291	3.034	124.457
13:32:07.292	3.035	126.159
13:32:07.293	3.036	127.71
13:32:07.294	3.037	129.101
13:32:07.295	3.038	130.331
13:32:07.296	3.039	131.395
13:32:07.297	3.04	132.295
13:32:07.298	3.041	133.046
13:32:07.299	3.042	133.668
13:32:07.300	3.043	134.187
13:32:07.301	3.044	134.617
13:32:07.302	3.045	134.967
13:32:07.303	3.046	135.226
13:32:07.304	3.047	135.375
13:32:07.305	3.048	135.389
13:32:07.306	3.049	135.247
13:32:07.307	3.05	134.941
13:32:07.308	3.051	134.473
13:32:07.309	3.052	133.849
13:32:07.310	3.053	133.083
13:32:07.311	3.054	132.19
13:32:07.312	3.055	131.188
13:32:07.313	3.056	130.093
13:32:07.314	3.057	128.927
13:32:07.315	3.058	127.716
13:32:07.316	3.059	126.494
13:32:07.317	3.06	125.292
13:32:07.318	3.061	124.142
13:32:07.319	3.062	123.07
13:32:07.320	3.063	122.103
13:32:07.321	3.064	121.258
13:32:07.322	3.065	120.537
13:32:07.323	3.066	119.912
13:32:07.324	3.067	119.333
13:32:07.325	3.068	118.737
13:32:07.326	3.069	118.066
13:32:07.327	3.07	117.279
13:32:07.328	3.071	116.356
13:32:07.329	3.072	115.292
13:32:07.330	3.073	114.095
13:32:07.331	3.074	112.774
13:32:07.332	3.075	111.339
13:32:07.333	3.076	109.799
13:32:07.334	3.077	108.156
13:32:07.335	3.078	106.41
13:32:07.336	3.079	104.554
13:32:07.337	3.08	102.581
13:32:07.338	3.081	100.488
13:32:07.339	3.082	98.2731
13:32:07.340	3.083	95.9395
13:32:07.341	3.084	93.4881
13:32:07.342	3.085	90.9212
13:32:07.343	3.086	88.2494
13:32:07.344	3.087	85.4993
13:32:07.345	3.088	82.7128
13:32:07.346	3.089	79.9415
13:32:07.347	3.09	77.2419
13:32:07.348	3.091	74.6704
13:32:07.349	3.092	72.2755
13:32:07.350	3.093	70.09
13:32:07.351	3.094	68.1275
13:32:07.352	3.095	66.3891
13:32:07.353	3.096	64.8701
13:32:07.354	3.097	63.5639
13:32:07.355	3.098	62.462
13:32:07.356	3.099	61.5546
13:32:07.357	3.1	60.829
13:32:07.358	3.101	60.2698
13:32:07.359	3.102	59.8608
13:32:07.360	3.103	59.5883
13:32:07.361	3.104	59.4429
13:32:07.362	3.105	59.4224
13:32:07.363	3.106	59.5305
13:32:07.364	3.107	59.7678
13:32:07.365	3.108	60.1193
13:32:07.366	3.109	60.5463
13:32:07.367	3.11	60.9913
13:32:07.368	3.111	61.393
13:32:07.369	3.112	61.7026
13:32:07.370	3.113	61.8965
13:32:07.371	3.114	61.9782
13:32:07.372	3.115	61.9705
13:32:07.373	3.116	61.9036
13:32:07.374	3.117	61.8065
13:32:07.375	3.118	61.7006
13:32:07.376	3.119	61.5922
13:32:07.377	3.12	61.4681
13:32:07.378	3.121	61.3004
13:32:07.379	3.122	61.0616
13:32:07.380	3.123	60.7377
13:32:07.381	3.124	60.3391
13:32:07.382	3.125	59.9029
13:32:07.383	3.126	59.4868
13:32:07.384	3.127	59.154
13:32:07.385	3.128	58.9602
13:32:07.386	3.129	58.9488
13:32:07.387	3.13	59.1529
13:32:07.388	3.131	59.5989
13:32:07.389	3.132	60.301
13:32:07.390	3.133	61.2522
13:32:07.391	3.134	62.4206
13:32:07.392	3.135	63.7584
13:32:07.393	3.136	65.21
13:32:07.394	3.137	66.7131
13:32:07.395	3.138	68.1964
13:32:07.396	3.139	69.5823
13:32:07.397	3.14	70.7961
13:32:07.398	3.141	71.7736
13:32:07.399	3.142	72.4649
13:32:07.400	3.143	72.8412
13:32:07.401	3.144	72.9049
13:32:07.402	3.145	72.692
13:32:07.403	3.146	72.2697
13:32:07.404	3.147	71.7307
13:32:07.405	3.148	71.1868
13:32:07.406	3.149	70.7593
13:32:07.407	3.15	70.5734
13:32:07.408	3.151	70.7625
13:32:07.409	3.152	71.4746
13:32:07.410	3.153	72.8736
13:32:07.411	3.154	75.132
13:32:07.412	3.155	78.4194
13:32:07.413	3.156	82.8911
13:32:07.414	3.157	88.6824
13:32:07.415	3.158	95.9002
13:32:07.416	3.159	104.611
13:32:07.417	3.16	114.832
13:32:07.418	3.161	126.531
13:32:07.419	3.162	139.633
13:32:07.420	3.163	154.037
13:32:07.421	3.164	169.621
13:32:07.422	3.165	186.256
13:32:07.423	3.166	203.805
13:32:07.424	3.167	222.12
13:32:07.425	3.168	241.037
13:32:07.426	3.169	260.363
13:32:07.427	3.17	279.882
13:32:07.428	3.171	299.351
13:32:07.429	3.172	318.518
13:32:07.430	3.173	337.115
13:32:07.431	3.174	354.87
13:32:07.432	3.175	371.502
13:32:07.433	3.176	386.729
13:32:07.434	3.177	400.272
13:32:07.435	3.178	411.878
13:32:07.436	3.179	421.324
13:32:07.437	3.18	428.435
13:32:07.438	3.181	433.071
13:32:07.439	3.182	435.126	mark
13:32:07.440	3.183	434.528
13:32:07.441	3.184	431.242
13:32:07.442	3.185	425.268
13:32:07.443	3.186	416.65
13:32:07.444	3.187	405.476
13:32:07.445	3.188	391.877
13:32:07.446	3.189	376.023
13:32:07.447	3.19	358.114
13:32:07.448	3.191	338.379
13:32:07.449	3.192	317.079
13:32:07.450	3.193	294.511
13:32:07.451	3.194	271.002
13:32:07.452	3.195	246.901
13:32:07.453	3.196	222.559
13:32:07.454	3.197	198.316
13:32:07.455	3.198	174.48
13:32:07.456	3.199	151.327
13:32:07.457	3.2	129.088
13:32:07.458	3.201	107.948
13:32:07.459	3.202	88.0508
13:32:07.460	3.203	69.5067
13:32:07.461	3.204	52.3967
13:32:07.462	3.205	36.7768
13:32:07.463	3.206	22.6853
13:32:07.464	3.207	10.152
13:32:07.465	3.208	-0.798394
13:32:07.466	3.209	-10.152
13:32:07.467	3.21	-17.9121
13:32:07.468	3.211	-24.1021
13:32:07.469	3.212	-28.7668
13:32:07.470	3.213	-31.9726
13:32:07.471	3.214	-33.8097
13:32:07.472	3.215	-34.3955
13:32:07.473	3.216	-33.8724
13:32:07.474	3.217	-32.3941
13:32:07.475	3.218	-30.1099
13:32:07.476	3.219	-27.1535
13:32:07.477	3.22	-23.6405
13:32:07.478	3.221	-19.6693
13:32:07.479	3.222	-15.3211
13:32:07.480	3.223	-10.658
13:32:07.481	3.224	-5.72636
13:32:07.482	3.225	-0.570502
13:32:07.483	3.226	4.75051
13:32:07.484	3.227	10.1589
13:32:07.485	3.228	15.5743
13:32:07.486	3.229	20.9367
13:32:07.487	3.23	26.2164
13:32:07.488	3.231	31.4079
13:32:07.489	3.232	36.5165
13:32:07.490	3.233	41.5524
13:32:07.491	3.234	46.5316
13:32:07.492	3.235	51.4759
13:32:07.493	3.236	56.4075
13:32:07.494	3.237	61.3419
13:32:07.495	3.238	66.283
13:32:07.496	3.239	71.2221
13:32:07.497	3.24	76.1398
13:32:07.498	3.241	81.0128
13:32:07.499	3.242	85.8196
13:32:07.500	3.243	90.5394
13:32:07.501	3.244	95.145
13:32:07.502	3.245	99.6025
13:32:07.503	3.246	103.875
13:32:07.504	3.247	107.927
13:32:07.505	3.248	111.722
13:32:07.506	3.249	115.231
13:32:07.507	3.25	118.428
13:32:07.508	3.251	121.297
13:32:07.509	3.252	123.825
13:32:07.510	3.253	126.004
13:32:07.511	3.254	127.822
13:32:07.512	3.255	129.275
13:32:07.513	3.256	130.37
13:32:07.514	3.257	131.136
13:32:07.515	3.258	131.618
13:32:07.516	3.259	131.868
13:32:07.517	3.26	131.934
13:32:07.518	3.261	131.854
13:32:07.519	3.262	131.659
13:32:07.520	3.263	131.368
13:32:07.521	3.264	130.994
13:32:07.522	3.265	130.546
13:32:07.523	3.266	130.032
13:32:07.524	3.267	129.466
13:32:07.525	3.268	128.861
13:32:07.526	3.269	128.226
13:32:07.527	3.27	127.563
13:32:07.528	3.271	126.868
13:32:07.529	3.272	126.147
13:32:07.530	3.273	125.419
13:32:07.531	3.274	124.723
13:32:07.532	3.275	124.11
13:32:07.533	3.276	123.64
13:32:07.534	3.277	123.356
13:32:07.535	3.278	123.279
13:32:07.536	3.279	123.408
13:32:07.537	3.28	123.733
13:32:07.538	3.281	124.245
13:32:07.539	3.282	124.943
13:32:07.540	3.283	125.824
13:32:07.541	3.284	126.889
13:32:07.542	3.285	128.138
13:32:07.543	3.286	129.572
13:32:07.544	3.287	131.181
13:32:07.545	3.288	132.949
13:32:07.546	3.289	134.853
13:32:07.547	3.29	136.866
13:32:07.548	3.291	138.961
13:32:07.549	3.292	141.114
13:32:07.550	3.293	143.307
13:32:07.551	3.294	145.527
13:32:07.552	3.295	147.755
13:32:07.553	3.296	149.978
13:32:07.554	3.297	152.186
13:32:07.555	3.298	154.373
13:32:07.556	3.299	156.536
13:32:07.557	3.3	158.669
13:32:07.558	3.301	160.762
13:32:07.559	3.302	162.8
13:32:07.560	3.303	164.772
13:32:07.561	3.304	166.676
13:32:07.562	3.305	168.518
13:32:07.563	3.306	170.308
13:32:07.564	3.307	172.058
13:32:07.565	3.308	173.777
13:32:07.566	3.309	175.473
13:32:07.567	3.31	177.161
13:32:07.568	3.311	178.864
13:32:07.569	3.312	180.604
13:32:07.570	3.313	182.406
13:32:07.571	3.314	184.296
13:32:07.572	3.315	186.297
13:32:07.573	3.316	188.42
13:32:07.574	3.317	190.663
13:32:07.575	3.318	193.004
13:32:07.576	3.319	195.403
13:32:07.577	3.32	197.807
13:32:07.578	3.321	200.162
13:32:07.579	3.322	202.424
13:32:07.580	3.323	204.57
13:32:07.581	3.324	206.584
13:32:07.582	3.325	208.457
13:32:07.583	3.326	210.176
13:32:07.584	3.327	211.729
13:32:07.585	3.328	213.106
13:32:07.586	3.329	214.305
13:32:07.587	3.33	215.34
13:32:07.588	3.331	216.243
13:32:07.589	3.332	217.072
13:32:07.590	3.333	217.911
13:32:07.591	3.334	218.858
13:32:07.592	3.335	220.008
13:32:07.593	3.336	221.437
13:32:07.594	3.337	223.204
13:32:07.595	3.338	225.347
13:32:07.596	3.339	227.883
13:32:07.597	3.34	230.799
13:32:07.598	3.341	234.06
13:32:07.599	3.342	237.611
13:32:07.600	3.343	241.391
13:32:07.601	3.344	245.33
13:32:07.602	3.345	249.365
13:32:07.603	3.346	253.437
13:32:07.604	3.347	257.501
13:32:07.605	3.348	261.529
13:32:07.606	3.349	265.504
13:32:07.607	3.35	269.425
13:32:07.608	3.351	273.306
13:32:07.609	3.352	277.179
13:32:07.610	3.353	281.094
13:32:07.611	3.354	285.102
13:32:07.612	3.355	289.246
13:32:07.613	3.356	293.544
13:32:07.614	3.357	297.996
13:32:07.615	3.358	302.588
13:32:07.616	3.359	307.296
13:32:07.617	3.36	312.097
13:32:07.618	3.361	316.966
13:32:07.619	3.362	321.89
13:32:07.620	3.363	326.865
13:32:07.621	3.364	331.897
13:32:07.622	3.365	336.988
13:32:07.623	3.366	342.129
13:32:07.624	3.367	347.301
13:32:07.625	3.368	352.475
13:32:07.626	3.369	357.628
13:32:07.627	3.37	362.734
13:32:07.628	3.371	367.771
13:32:07.629	3.372	372.717
13:32:07.630	3.373	377.555
13:32:07.631	3.374	382.27
13:32:07.632	3.375	386.844
13:32:07.633	3.376	391.247
13:32:07.634	3.377	395.439
13:32:07.635	3.378	399.381
13:32:07.636	3.379	403.048
13:32:07.637	3.38	406.428
13:32:07.638	3.381	409.524
13:32:07.639	3.382	412.345
13:32:07.640	3.383	414.903
13:32:07.641	3.384	417.217
13:32:07.642	3.385	419.312
13:32:07.643	3.386	421.223
13:32:07.644	3.387	422.989
13:32:07.645	3.388	424.65
13:32:07.646	3.389	426.235
13:32:07.647	3.39	427.764
13:32:07.648	3.391	429.239
13:32:07.649	3.392	430.626
13:32:07.650	3.393	431.859
13:32:07.651	3.394	432.853
13:32:07.652	3.395	433.527
13:32:07.653	3.396	433.82
13:32:07.654	3.397	433.702
13:32:07.655	3.398	433.176
13:32:07.656	3.399	432.271
13:32:07.657	3.4	431.041
13:32:07.658	3.401	429.547
13:32:07.659	3.402	427.848
13:32:07.660	3.403	425.982
13:32:07.661	3.404	423.97
13:32:07.662	3.405	421.823
13:32:07.663	3.406	419.55
13:32:07.664	3.407	417.163
13:32:07.665	3.408	414.68
13:32:07.666	3.409	412.115
13:32:07.667	3.41	409.487
13:32:07.668	3.411	406.814
13:32:07.669	3.412	404.109
13:32:07.670	3.413	401.378
13:32:07.671	3.414	398.613
13:32:07.672	3.415	395.805
13:32:07.673	3.416	392.946
13:32:07.674	3.417	390.027
13:32:07.675	3.418	387.039
13:32:07.676	3.419	383.97
13:32:07.677	3.42	380.809
13:32:07.678	3.421	377.534
13:32:07.679	3.422	374.111
13:32:07.680	3.423	370.493
13:32:07.681	3.424	366.624
13:32:07.682	3.425	362.445
13:32:07.683	3.426	357.897
13:32:07.684	3.427	352.92
13:32:07.685	3.428	347.467
13:32:07.686	3.429	341.515
13:32:07.687	3.43	335.072
13:32:07.688	3.431	328.173
13:32:07.689	3.432	320.874
13:32:07.690	3.433	313.238
13:32:07.691	3.434	305.333
13:32:07.692	3.435	297.226
13:32:07.693	3.436	288.978
13:32:07.694	3.437	280.644
13:32:07.695	3.438	272.274
13:32:07.696	3.439	263.908
13:32:07.697	3.44	255.585
13:32:07.698	3.441	247.34
13:32:07.699	3.442	239.202
13:32:07.700	3.443	231.188
13:32:07.701	3.444	223.308
13:32:07.702	3.445	215.567
13:32:07.703	3.446	207.975
13:32:07.704	3.447	200.544
13:32:07.705	3.448	193.293
13:32:07.706	3.449	186.245
13:32:07.707	3.45	179.423
13:32:07.708	3.451	172.852
13:32:07.709	3.452	166.549
13:32:07.710	3.453	160.53
13:32:07.711	3.454	154.805
13:32:07.712	3.455	149.377
13:32:07.713	3.456	144.232
13:32:07.714	3.457	139.338
13:32:07.715	3.458	134.64
13:32:07.716	3.459	130.073
13:32:07.717	3.46	125.576
13:32:07.718	3.461	121.121
13:32:07.719	3.462	116.729
13:32:07.720	3.463	112.466
13:32:07.721	3.464	108.421
13:32:07.722	3.465	104.676
13:32:07.723	3.466	101.286
13:32:07.724	3.467	98.2782
13:32:07.725	3.468	95.6534
13:32:07.726	3.469	93.3936
13:32:07.727	3.47	91.467
13:32:07.728	3.471	89.833
13:32:07.729	3.472	88.4489
13:32:07.730	3.473	87.2788
13:32:07.731	3.474	86.2979
13:32:07.732	3.475	85.4928
13:32:07.733	3.476	84.8621
13:32:07.734	3.477	84.4147
13:32:07.735	3.478	84.1661
13:32:07.736	3.479	84.1309
13:32:07.737	3.48	84.3171
13:32:07.738	3.481	84.7222
13:32:07.739	3.482	85.3307
13:32:07.740	3.483	86.1099
13:32:07.741	3.484	87.0097
13:32:07.742	3.485	87.9689
13:32:07.743	3.486	88.9263
13:32:07.744	3.487	89.8273
13:32:07.745	3.488	90.6232
13:32:07.746	3.489	91.2701
13:32:07.747	3.49	91.7325
13:32:07.748	3.491	91.9905
13:32:07.749	3.492	92.0421
13:32:07.750	3.493	91.8961
13:32:07.751	3.494	91.5622
13:32:07.752	3.495	91.0482
13:32:07.753	3.496	90.3656
13:32:07.754	3.497	89.5346
13:32:07.755	3.498	88.5854
13:32:07.756	3.499	87.5514
13:32:07.757	3.5	86.4622
13:32:07.758	3.501	85.339
13:32:07.759	3.502	84.1994
13:32:07.760	3.503	83.0622
13:32:07.761	3.504	81.9504
13:32:07.762	3.505	80.8894
13:32:07.763	3.506	79.9054
13:32:07.764	3.507	79.0221
13:32:07.765	3.508	78.2512
13:32:07.766	3.509	77.5849
13:32:07.767	3.51	76.9972
13:32:07.768	3.511	76.4543
13:32:07.769	3.512	75.9277
13:32:07.770	3.513	75.3989
13:32:07.771	3.514	74.8557
13:32:07.772	3.515	74.2891
13:32:07.773	3.516	73.698
13:32:07.774	3.517	73.0965
13:32:07.775	3.518	72.5108
13:32:07.776	3.519	71.9685
13:32:07.777	3.52	71.4912
13:32:07.778	3.521	71.0936
13:32:07.779	3.522	70.7853
13:32:07.780	3.523	70.5694
13:32:07.781	3.524	70.4398
13:32:07.782	3.525	70.383
13:32:07.783	3.526	70.3851
13:32:07.784	3.527	70.4389
13:32:07.785	3.528	70.5402
13:32:07.786	3.529	70.684
13:32:07.787	3.53	70.8657
13:32:07.788	3.531	71.0824
13:32:07.789	3.532	71.3264
13:32:07.790	3.533	71.5827
13:32:07.791	3.534	71.8386
13:32:07.792	3.535	72.0963
13:32:07.793	3.536	72.3729
13:32:07.794	3.537	72.6887
13:32:07.795	3.538	73.0565
13:32:07.796	3.539	73.4796
13:32:07.797	3.54	73.9543
13:32:07.798	3.541	74.4732
13:32:07.799	3.542	75.0227
13:32:07.800	3.543	75.5778
13:32:07.801	3.544	76.0997
13:32:07.802	3.545	76.5401
13:32:07.803	3.546	76.8501
13:32:07.804	3.547	76.9921
13:32:07.805	3.548	76.9504
13:32:07.806	3.549	76.7367
13:32:07.807	3.55	76.3875
13:32:07.808	3.551	75.957
13:32:07.809	3.552	75.5112
13:32:07.810	3.553	75.1225
13:32:07.811	3.554	74.8617
13:32:07.812	3.555	74.7876
13:32:07.813	3.556	74.9407
13:32:07.814	3.557	75.3408
13:32:07.815	3.558	75.9857
13:32:07.816	3.559	76.8548
13:32:07.817	3.56	77.915
13:32:07.818	3.561	79.1258
13:32:07.819	3.562	80.4429
13:32:07.820	3.563	81.8227
13:32:07.821	3.564	83.2265
13:32:07.822	3.565	84.624
13:32:07.823	3.566	85.9923
13:32:07.824	3.567	87.312
13:32:07.825	3.568	88.5593
13:32:07.826	3.569	89.7001
13:32:07.827	3.57	90.6893
13:32:07.828	3.571	91.4772
13:32:07.829	3.572	92.0185
13:32:07.830	3.573	92.2771
13:32:07.831	3.574	92.227
13:32:07.832	3.575	91.8558
13:32:07.833	3.576	91.1708
13:32:07.834	3.577	90.2034
13:32:07.835	3.578	89.0089
13:32:07.836	3.579	87.658
13:32:07.837	3.58	86.2227
13:32:07.838	3.581	84.7658
13:32:07.839	3.582	83.3389
13:32:07.840	3.583	81.9835
13:32:07.841	3.584	80.7284
13:32:07.842	3.585	79.5906
13:32:07.843	3.586	78.583
13:32:07.844	3.587	77.7215
13:32:07.845	3.588	77.0258
13:32:07.846	3.589	76.5137
13:32:07.847	3.59	76.1922
13:32:07.848	3.591	76.0522
13:32:07.849	3.592	76.0687
13:32:07.850	3.593	76.201
13:32:07.851	3.594	76.3917
13:32:07.852	3.595	76.5707
13:32:07.853	3.596	76.6702
13:32:07.854	3.597	76.6437
13:32:07.855	3.598	76.4751
13:32:07.856	3.599	76.1731
13:32:07.857	3.6	75.7608
13:32:07.858	3.601	75.2704
13:32:07.859	3.602	74.7427
13:32:07.860	3.603	74.2295
13:32:07.861	3.604	73.7909
13:32:07.862	3.605	73.4878
13:32:07.863	3.606	73.3724
13:32:07.864	3.607	73.4801
13:32:07.865	3.608	73.8246
13:32:07.866	3.609	74.3946
13:32:07.867	3.61	75.1555
13:32:07.868	3.611	76.0561
13:32:07.869	3.612	77.038
13:32:07.870	3.613	78.0441
13:32:07.871	3.614	79.0261
13:32:07.872	3.615	79.9482
13:32:07.873	3.616	80.7888
13:32:07.874	3.617	81.5452
13:32:07.875	3.618	82.2336
13:32:07.876	3.619	82.8807
13:32:07.877	3.62	83.5144
13:32:07.878	3.621	84.1599
13:32:07.879	3.622	84.8402
13:32:07.880	3.623	85.5723
13:32:07.881	3.624	86.3645
13:32:07.882	3.625	87.2174
13:32:07.883	3.626	88.1252
13:32:07.884	3.627	89.0743
13:32:07.885	3.628	90.0429
13:32:07.886	3.629	91.0035
13:32:07.887	3.63	91.927
13:32:07.888	3.631	92.7826
13:32:07.889	3.632	93.5368
13:32:07.890	3.633	94.1561
13:32:07.891	3.634	94.614
13:32:07.892	3.635	94.898
13:32:07.893	3.636	95.0125
13:32:07.894	3.637	94.9799
13:32:07.895	3.638	94.8363
13:32:07.896	3.639	94.625
13:32:07.897	3.64	94.3911
13:32:07.898	3.641	94.18
13:32:07.899	3.642	94.0334
13:32:07.900	3.643	93.983
13:32:07.901	3.644	94.0399
13:32:07.902	3.645	94.1865
13:32:07.903	3.646	94.377
13:32:07.904	3.647	94.5467
13:32:07.905	3.648	94.6207
13:32:07.906	3.649	94.5213
13:32:07.907	3.65	94.1792
13:32:07.908	3.651	93.5486
13:32:07.909	3.652	92.6142
13:32:07.910	3.653	91.3838
13:32:07.911	3.654	89.8767
13:32:07.912	3.655	88.1177
13:32:07.913	3.656	86.1404
13:32:07.914	3.657	83.9934
13:32:07.915	3.658	81.7466
13:32:07.916	3.659	79.4876
13:32:07.917	3.66	77.3099
13:32:07.918	3.661	75.2932
13:32:07.919	3.662	73.4875
13:32:07.920	3.663	71.9068
13:32:07.921	3.664	70.5384
13:32:07.922	3.665	69.3592
13:32:07.923	3.666	68.3468
13:32:07.924	3.667	67.4838
13:32:07.925	3.668	66.7565
13:32:07.926	3.669	66.1567
13:32:07.927	3.67	65.6868
13:32:07.928	3.671	65.3602
13:32:07.929	3.672	65.197
13:32:07.930	3.673	65.2166
13:32:07.931	3.674	65.4307
13:32:07.932	3.675	65.8372
13:32:07.933	3.676	66.4207
13:32:07.934	3.677	67.1596
13:32:07.935	3.678	68.0338
13:32:07.936	3.679	69.0262
13:32:07.937	3.68	70.1153
13:32:07.938	3.681	71.2673
13:32:07.939	3.682	72.433
13:32:07.940	3.683	73.5535
13:32:07.941	3.684	74.5703
13:32:07.942	3.685	75.4337
13:32:07.943	3.686	76.1052
13:32:07.944	3.687	76.5594
13:32:07.945	3.688	76.7862
13:32:07.946	3.689	76.7898
13:32:07.947	3.69	76.5846
13:32:07.948	3.691	76.1896
13:32:07.949	3.692	75.6249
13:32:07.950	3.693	74.9123
13:32:07.951	3.694	74.0782
13:32:07.952	3.695	73.1529
13:32:07.953	3.696	72.1669
13:32:07.954	3.697	71.1496
13:32:07.955	3.698	70.1301
13:32:07.956	3.699	69.1379
13:32:07.957	3.7	68.2016
13:32:07.958	3.701	67.3489
13:32:07.959	3.702	66.6067
13:32:07.960	3.703	66.0011
13:32:07.961	3.704	65.5576
13:32:07.962	3.705	65.294
13:32:07.963	3.706	65.2132
13:32:07.964	3.707	65.3048
13:32:07.965	3.708	65.5558
13:32:07.966	3.709	65.9577
13:32:07.967	3.71	66.5028
13:32:07.968	3.711	67.1774
13:32:07.969	3.712	67.9601
13:32:07.970	3.713	68.8245
13:32:07.971	3.714	69.746
13:32:07.972	3.715	70.7093
13:32:07.973	3.716	71.709
13:32:07.974	3.717	72.7385
13:32:07.975	3.718	73.7759
13:32:07.976	3.719	74.7858
13:32:07.977	3.72	75.7361
13:32:07.978	3.721	76.6131
13:32:07.979	3.722	77.4236
13:32:07.980	3.723	78.1841
13:32:07.981	3.724	78.9068
13:32:07.982	3.725	79.5894
13:32:07.983	3.726	80.2147
13:32:07.984	3.727	80.7601
13:32:07.985	3.728	81.2073
13:32:07.986	3.729	81.544
13:32:07.987	3.73	81.7582
13:32:07.988	3.731	81.8321
13:32:07.989	3.732	81.7412
13:32:07.990	3.733	81.456
13:32:07.991	3.734	80.9465
13:32:07.992	3.735	80.1877
13:32:07.993	3.736	79.168
13:32:07.994	3.737	77.8967
13:32:07.995	3.738	76.4113
13:32:07.996	3.739	74.7759
13:32:07.997	3.74	73.0679
13:32:07.998	3.741	71.362
13:32:07.999	3.742	69.7223
13:32:08.000	3.743	68.2047
13:32:08.001	3.744	66.8617
13:32:08.002	3.745	65.7385
13:32:08.003	3.746	64.8609
13:32:08.004	3.747	64.228
13:32:08.005	3.748	63.8149
13:32:08.006	3.749	63.5835
13:32:08.007	3.75	63.4912
13:32:08.008	3.751	63.4913
13:32:08.009	3.752	63.5272
13:32:08.010	3.753	63.5358
13:32:08.011	3.754	63.4588
13:32:08.012	3.755	63.2546
13:32:08.013	3.756	62.8993
13:32:08.014	3.757	62.3807
13:32:08.015	3.758	61.698
13:32:08.016	3.759	60.8694
13:32:08.017	3.76	59.9296
13:32:08.018	3.761	58.9179
13:32:08.019	3.762	57.8661
13:32:08.020	3.763	56.7936
13:32:08.021	3.764	55.7081
13:32:08.022	3.765	54.6099
13:32:08.023	3.766	53.501
13:32:08.024	3.767	52.3956
13:32:08.025	3.768	51.3251
13:32:08.026	3.769	50.3348
13:32:08.027	3.77	49.4758
13:32:08.028	3.771	48.7978
13:32:08.029	3.772	48.3417
13:32:08.030	3.773	48.1326
13:32:08.031	3.774	48.1786
13:32:08.032	3.775	48.4742
13:32:08.033	3.776	49.0005
13:32:08.034	3.777	49.7205
13:32:08.035	3.778	50.5792
13:32:08.036	3.779	51.5125
13:32:08.037	3.78	52.4569
13:32:08.038	3.781	53.354
13:32:08.039	3.782	54.1546
13:32:08.040	3.783	54.8269
13:32:08.041	3.784	55.3631
13:32:08.042	3.785	55.7763
13:32:08.043	3.786	56.0921
13:32:08.044	3.787	56.3399
13:32:08.045	3.788	56.5481
13:32:08.046	3.789	56.7425
13:32:08.047	3.79	56.9499
13:32:08.048	3.791	57.2
13:32:08.049	3.792	57.517
13:32:08.050	3.793	57.9105
13:32:08.051	3.794	58.3791
13:32:08.052	3.795	58.9238
13:32:08.053	3.796	59.5558
13:32:08.054	3.797	60.2946
13:32:08.055	3.798	61.161
13:32:08.056	3.799	62.1721
13:32:08.057	3.8	63.3401
13:32:08.058	3.801	64.674
13:32:08.059	3.802	66.1806
13:32:08.060	3.803	67.861
13:32:08.061	3.804	69.7056
13:32:08.062	3.805	71.6885
13:32:08.063	3.806	73.7654
13:32:08.064	3.807	75.8764
13:32:08.065	3.808	77.9528
13:32:08.066	3.809	79.9253
13:32:08.067	3.81	81.7258
13:32:08.068	3.811	83.2862
13:32:08.069	3.812	84.541
13:32:08.070	3.813	85.4341
13:32:08.071	3.814	85.9252
13:32:08.072	3.815	85.9916
13:32:08.073	3.816	85.6259
13:32:08.074	3.817	84.8334
13:32:08.075	3.818	83.6312
13:32:08.076	3.819	82.052
13:32:08.077	3.82	80.1488
13:32:08.078	3.821	77.9931
13:32:08.079	3.822	75.6674
13:32:08.080	3.823	73.2574
13:32:08.081	3.824	70.8476
13:32:08.082	3.825	68.5181
13:32:08.083	3.826	66.3385
13:32:08.084	3.827	64.3648
13:32:08.085	3.828	62.6394
13:32:08.086	3.829	61.1934
13:32:08.087	3.83	60.0459
13:32:08.088	3.831	59.2049
13:32:08.089	3.832	58.6695
13:32:08.090	3.833	58.435
13:32:08.091	3.834	58.4968
13:32:08.092	3.835	58.8476
13:32:08.093	3.836	59.4724
13:32:08.094	3.837	60.3451
13:32:08.095	3.838	61.4293
13:32:08.096	3.839	62.679
13:32:08.097	3.84	64.0366
13:32:08.098	3.841	65.4306
13:32:08.099	3.842	66.7804
13:32:08.100	3.843	68.0122
13:32:08.101	3.844	69.0761
13:32:08.102	3.845	69.9492
13:32:08.103	3.846	70.6289
13:32:08.104	3.847	71.1254
13:32:08.105	3.848	71.4578
13:32:08.106	3.849	71.654
13:32:08.107	3.85	71.7516
13:32:08.108	3.851	71.7942
13:32:08.109	3.852	71.8268
13:32:08.110	3.853	71.8936
13:32:08.111	3.854	72.0389
13:32:08.112	3.855	72.3056
13:32:08.113	3.856	72.7306
13:32:08.114	3.857	73.3382
13:32:08.115	3.858	74.134
13:32:08.116	3.859	75.1002
13:32:08.117	3.86	76.201
13:32:08.118	3.861	77.3951
13:32:08.119	3.862	78.6459
13:32:08.120	3.863	79.9208
13:32:08.121	3.864	81.1825
13:32:08.122	3.865	82.3827
13:32:08.123	3.866	83.4627
13:32:08.124	3.867	84.3632
13:32:08.125	3.868	85.0405
13:32:08.126	3.869	85.4728
13:32:08.127	3.87	85.6585
13:32:08.128	3.871	85.6093
13:32:08.129	3.872	85.3495
13:32:08.130	3.873	84.9202
13:32:08.131	3.874	84.3816
13:32:08.132	3.875	83.8049
13:32:08.133	3.876	83.2638
13:32:08.134	3.877	82.8326
13:32:08.135	3.878	82.5838
13:32:08.136	3.879	82.5821
13:32:08.137	3.88	82.8788
13:32:08.138	3.881	83.5083
13:32:08.139	3.882	84.4865
13:32:08.140	3.883	85.8087
13:32:08.141	3.884	87.4527
13:32:08.142	3.885	89.3864
13:32:08.143	3.886	91.5761
13:32:08.144	3.887	93.9913
13:32:08.145	3.888	96.6009
13:32:08.146	3.889	99.3672
13:32:08.147	3.89	102.238
13:32:08.148	3.891	105.149
13:32:08.149	3.892	108.032
13:32:08.150	3.893	110.834
13:32:08.151	3.894	113.516
13:32:08.152	3.895	116.061
13:32:08.153	3.896	118.46
13:32:08.154	3.897	120.711
13:32:08.155	3.898	122.819
13:32:08.156	3.899	124.787
13:32:08.157	3.9	126.608
13:32:08.158	3.901	128.262
13:32:08.159	3.902	129.724
13:32:08.160	3.903	130.971
13:32:08.161	3.904	131.996
13:32:08.162	3.905	132.809
13:32:08.163	3.906	133.43
13:32:08.164	3.907	133.872
13:32:08.165	3.908	134.129
13:32:08.166	3.909	134.172
13:32:08.167	3.91	133.961
13:32:08.168	3.911	133.465
13:32:08.169	3.912	132.666
13:32:08.170	3.913	131.574
13:32:08.171	3.914	130.223
13:32:08.172	3.915	128.667
13:32:08.173	3.916	126.967
13:32:08.174	3.917	125.185
13:32:08.175	3.918	123.39
13:32:08.176	3.919	121.65
13:32:08.177	3.92	120.02
13:32:08.178	3.921	118.533
13:32:08.179	3.922	117.192
13:32:08.180	3.923	115.979
13:32:08.181	3.924	114.864
13:32:08.182	3.925	113.815
13:32:08.183	3.926	112.8
13:32:08.184	3.927	111.787
13:32:08.185	3.928	110.746
13:32:08.186	3.929	109.65
13:32:08.187	3.93	108.48
13:32:08.188	3.931	107.225
13:32:08.189	3.932	105.884
13:32:08.190	3.933	104.472
13:32:08.191	3.934	103.019
13:32:08.192	3.935	101.561
13:32:08.193	3.936	100.135
13:32:08.194	3.937	98.7761
13:32:08.195	3.938	97.5133
13:32:08.196	3.939	96.3713
13:32:08.197	3.94	95.3682
13:32:08.198	3.941	94.5175
13:32:08.199	3.942	93.8246
13:32:08.200	3.943	93.2787
13:32:08.201	3.944	92.8426
13:32:08.202	3.945	92.4554
13:32:08.203	3.946	92.0494
13:32:08.204	3.947	91.5714
13:32:08.205	3.948	90.9935
13:32:08.206	3.949	90.3095
13:32:08.207	3.95	89.526
13:32:08.208	3.951	88.6529
13:32:08.209	3.952	87.6997
13:32:08.210	3.953	86.6753
13:32:08.211	3.954	85.5866
13:32:08.212	3.955	84.4373
13:32:08.213	3.956	83.2302
13:32:08.214	3.957	81.9721
13:32:08.215	3.958	80.679
13:32:08.216	3.959	79.3765
13:32:08.217	3.96	78.0973
13:32:08.218	3.961	76.8752
13:32:08.219	3.962	75.7371
13:32:08.220	3.963	74.6986
13:32:08.221	3.964	73.7672
13:32:08.222	3.965	72.9502
13:32:08.223	3.966	72.2577
13:32:08.224	3.967	71.7019
13:32:08.225	3.968	71.2943
13:32:08.226	3.969	71.0394
13:32:08.227	3.97	70.924
13:32:08.228	3.971	70.911
13:32:08.229	3.972	70.9472
13:32:08.230	3.973	70.983
13:32:08.231	3.974	70.9863
13:32:08.232	3.975	70.9439
13:32:08.233	3.976	70.8571
13:32:08.234	3.977	70.7393
13:32:08.235	3.978	70.6114
13:32:08.236	3.979	70.4922
13:32:08.237	3.98	70.3869
13:32:08.238	3.981	70.2846
13:32:08.239	3.982	70.1662
13:32:08.240	3.983	70.0111
13:32:08.241	3.984	69.7989
13:32:08.242	3.985	69.5082
13:32:08.243	3.986	69.1179
13:32:08.244	3.987	68.612
13:32:08.245	3.988	67.9892
13:32:08.246	3.989	67.2676
13:32:08.247	3.99	66.4788
13:32:08.248	3.991	65.6621
13:32:08.249	3.992	64.8639
13:32:08.250	3.993	64.1364
13:32:08.251	3.994	63.5308
13:32:08.252	3.995	63.0874
13:32:08.253	3.996	62.8253
13:32:08.254	3.997	62.7334
13:32:08.255	3.998	62.7639
13:32:08.256	3.999	62.8382
13:32:08.257	4	62.8665
13:32:08.258	4.001	62.7704
13:32:08.259	4.002	62.4926
13:32:08.260	4.003	61.9933
13:32:08.260	4.004	61.248
13:32:08.262	4.005	60.2528
13:32:08.263	4.006	59.0276
13:32:08.263	4.007	57.6122
13:32:08.265	4.008	56.0574
13:32:08.266	4.009	54.4232
13:32:08.267	4.01	52.7835
13:32:08.268	4.011	51.233
13:32:08.268	4.012	49.8866
13:32:08.270	4.013	48.8718
13:32:08.271	4.014	48.3213
13:32:08.271	4.015	48.3686
13:32:08.273	4.016	49.1474
13:32:08.274	4.017	50.7887
13:32:08.275	4.018	53.4176
13:32:08.276	4.019	57.1575
13:32:08.276	4.02	62.1369
13:32:08.278	4.021	68.4841
13:32:08.279	4.022	76.3058
13:32:08.279	4.023	85.6625
13:32:08.281	4.024	96.5569
13:32:08.282	4.025	108.935
13:32:08.283	4.026	122.696
13:32:08.284	4.027	137.709
13:32:08.284	4.028	153.826
13:32:08.286	4.029	170.896
13:32:08.287	4.03	188.77
13:32:08.287	4.031	207.295
13:32:08.289	4.032	226.311
13:32:08.290	4.033	245.649
13:32:08.291	4.034	265.126
13:32:08.292	4.035	284.54
13:32:08.292	4.036	303.671
13:32:08.294	4.037	322.279
13:32:08.295	4.038	340.107
13:32:08.295	4.039	356.897
13:32:08.297	4.04	372.395
13:32:08.298	4.041	386.364
13:32:08.299	4.042	398.585
13:32:08.300	4.043	408.861
13:32:08.300	4.044	417.006
13:32:08.302	4.045	422.849
13:32:08.303	4.046	426.247	mark
13:32:08.303	4.047	427.097
13:32:08.305	4.048	425.341
13:32:08.306	4.049	420.969
13:32:08.307	4.05	414.014
13:32:08.308	4.051	404.559
13:32:08.308	4.052	392.723
13:32:08.310	4.053	378.649
13:32:08.311	4.054	362.5
13:32:08.311	4.055	344.467
13:32:08.313	4.056	324.783
13:32:08.314	4.057	303.707
13:32:08.315	4.058	281.522
13:32:08.316	4.059	258.525
13:32:08.316	4.06	235.033
13:32:08.318	4.061	211.375
13:32:08.319	4.062	187.868
13:32:08.319	4.063	164.813
13:32:08.321	4.064	142.489
13:32:08.322	4.065	121.148
13:32:08.323	4.066	101.007
13:32:08.324	4.067	82.2384
13:32:08.324	4.068	64.966
13:32:08.326	4.069	49.2703
13:32:08.327	4.07	35.1942
13:32:08.327	4.071	22.7516
13:32:08.329	4.072	11.9305
13:32:08.330	4.073	2.6941
13:32:08.331	4.074	-5.01583
13:32:08.332	4.075	-11.2727
13:32:08.332	4.076	-16.1573
13:32:08.334	4.077	-19.7513
13:32:08.335	4.078	-22.1344
13:32:08.335	4.079	-23.3866
13:32:08.337	4.08	-23.5963
13:32:08.338	4.081	-22.8676
13:32:08.339	4.082	-21.3227
13:32:08.340	4.083	-19.0986
13:32:08.340	4.084	-16.3408
13:32:08.342	4.085	-13.1924
13:32:08.343	4.086	-9.77554
13:32:08.343	4.087	-6.17283
13:32:08.345	4.088	-2.42294
13:32:08.346	4.089	1.4697
13:32:08.347	4.09	5.51754
13:32:08.348	4.091	9.73435
13:32:08.348	4.092	14.1262
13:32:08.350	4.093	18.6873
13:32:08.351	4.094	23.3992
13:32:08.351	4.095	28.2327
13:32:08.353	4.096	33.1517
13:32:08.354	4.097	38.1168
13:32:08.355	4.098	43.0871
13:32:08.356	4.099	48.0179
13:32:08.357	4.1	52.8591
13:32:08.358	4.101	57.5586
13:32:08.359	4.102	62.0694
13:32:08.360	4.103	66.3536
13:32:08.361	4.104	70.384
13:32:08.362	4.105	74.1478
13:32:08.363	4.106	77.6478
13:32:08.364	4.107	80.8989
13:32:08.365	4.108	83.9194
13:32:08.366	4.109	86.7232
13:32:08.367	4.11	89.3149
13:32:08.368	4.111	91.6935
13:32:08.369	4.112	93.8637
13:32:08.370	4.113	95.8488
13:32:08.371	4.114	97.6942
13:32:08.372	4.115	99.4622
13:32:08.373	4.116	101.218
13:32:08.374	4.117	103.016
13:32:08.375	4.118	104.887
13:32:08.376	4.119	106.841
13:32:08.377	4.12	108.871
13:32:08.378	4.121	110.951
13:32:08.379	4.122	113.043
13:32:08.380	4.123	115.106
13:32:08.381	4.124	117.094
13:32:08.382	4.125	118.967
13:32:08.383	4.126	120.686
13:32:08.384	4.127	122.227
13:32:08.385	4.128	123.58
13:32:08.386	4.129	124.737
13:32:08.387	4.13	125.696
13:32:08.388	4.131	126.46
13:32:08.389	4.132	127.042
13:32:08.390	4.133	127.453
13:32:08.391	4.134	127.702
13:32:08.392	4.135	127.794
13:32:08.393	4.136	127.742
13:32:08.394	4.137	127.563
13:32:08.395	4.138	127.285
13:32:08.396	4.139	126.942
13:32:08.397	4.14	126.573
13:32:08.398	4.141	126.215
13:32:08.399	4.142	125.897
13:32:08.400	4.143	125.637
13:32:08.401	4.144	125.436
13:32:08.402	4.145	125.286
13:32:08.403	4.146	125.175
13:32:08.404	4.147	125.09
13:32:08.405	4.148	125.028
13:32:08.406	4.149	124.997
13:32:08.407	4.15	125.018
13:32:08.408	4.151	125.12
13:32:08.409	4.152	125.339
13:32:08.410	4.153	125.709
13:32:08.411	4.154	126.26
13:32:08.412	4.155	127.013
13:32:08.413	4.156	127.984
13:32:08.414	4.157	129.189
13:32:08.415	4.158	130.645
13:32:08.416	4.159	132.367
13:32:08.417	4.16	134.361
13:32:08.418	4.161	136.623
13:32:08.419	4.162	139.134
13:32:08.420	4.163	141.871
13:32:08.421	4.164	144.808
13:32:08.422	4.165	147.931
13:32:08.423	4.166	151.229
13:32:08.424	4.167	154.699
13:32:08.425	4.168	158.335
13:32:08.426	4.169	162.122
13:32:08.427	4.17	166.026
13:32:08.428	4.171	169.989
13:32:08.429	4.172	173.935
13:32:08.430	4.173	177.773
13:32:08.431	4.174	181.415
13:32:08.432	4.175	184.781
13:32:08.433	4.176	187.813
13:32:08.434	4.177	190.474
13:32:08.435	4.178	192.755
13:32:08.436	4.179	194.673
13:32:08.437	4.18	196.271
13:32:08.438	4.181	197.613
13:32:08.439	4.182	198.764
13:32:08.440	4.183	199.78
13:32:08.441	4.184	200.697
13:32:08.442	4.185	201.536
13:32:08.443	4.186	202.306
13:32:08.444	4.187	203.011
13:32:08.445	4.188	203.664
13:32:08.446	4.189	204.289
13:32:08.447	4.19	204.927
13:32:08.448	4.191	205.62
13:32:08.449	4.192	206.403
13:32:08.450	4.193	207.296
13:32:08.451	4.194	208.313
13:32:08.452	4.195	209.468
13:32:08.453	4.196	210.768
13:32:08.454	4.197	212.217
13:32:08.455	4.198	213.817
13:32:08.456	4.199	215.574
13:32:08.457	4.2	217.501
13:32:08.458	4.201	219.619
13:32:08.459	4.202	221.944
13:32:08.460	4.203	224.487
13:32:08.461	4.204	227.247
13:32:08.462	4.205	230.21
13:32:08.463	4.206	233.35
13:32:08.464	4.207	236.635
13:32:08.465	4.208	240.031
13:32:08.466	4.209	243.508
13:32:08.467	4.21	247.032
13:32:08.468	4.211	250.582
13:32:08.469	4.212	254.146
13:32:08.470	4.213	257.718
13:32:08.471	4.214	261.29
13:32:08.472	4.215	264.854
13:32:08.473	4.216	268.406
13:32:08.474	4.217	271.954
13:32:08.475	4.218	275.512
13:32:08.476	4.219	279.103
13:32:08.477	4.22	282.757
13:32:08.478	4.221	286.508
13:32:08.479	4.222	290.383
13:32:08.480	4.223	294.403
13:32:08.481	4.224	298.576
13:32:08.482	4.225	302.902
13:32:08.483	4.226	307.381
13:32:08.484	4.227	312.014
13:32:08.485	4.228	316.801
13:32:08.486	4.229	321.754
13:32:08.487	4.23	326.879
13:32:08.488	4.231	332.179
13:32:08.489	4.232	337.634
13:32:08.490	4.233	343.212
13:32:08.491	4.234	348.873
13:32:08.492	4.235	354.572
13:32:08.493	4.236	360.271
13:32:08.494	4.237	365.956
13:32:08.495	4.238	371.627
13:32:08.496	4.239	377.288
13:32:08.497	4.24	382.928
13:32:08.498	4.241	388.514
13:32:08.499	4.242	393.995
13:32:08.500	4.243	399.32
13:32:08.501	4.244	404.444
13:32:08.502	4.245	409.327
13:32:08.503	4.246	413.936
13:32:08.504	4.247	418.241
13:32:08.505	4.248	422.215
13:32:08.506	4.249	425.83
13:32:08.507	4.25	429.058
13:32:08.508	4.251	431.875
13:32:08.509	4.252	434.273
13:32:08.510	4.253	436.257
13:32:08.511	4.254	437.842
13:32:08.512	4.255	439.05
13:32:08.513	4.256	439.908
13:32:08.514	4.257	440.443
13:32:08.515	4.258	440.679
13:32:08.516	4.259	440.63
13:32:08.517	4.26	440.292
13:32:08.518	4.261	439.655
13:32:08.519	4.262	438.704
13:32:08.520	4.263	437.431
13:32:08.521	4.264	435.839
13:32:08.522	4.265	433.932
13:32:08.523	4.266	431.714
13:32:08.524	4.267	429.181
13:32:08.525	4.268	426.33
13:32:08.526	4.269	423.159
13:32:08.527	4.27	419.684
13:32:08.528	4.271	415.939
13:32:08.529	4.272	411.966
13:32:08.530	4.273	407.808
13:32:08.531	4.274	403.504
13:32:08.532	4.275	399.088
13:32:08.533	4.276	394.593
13:32:08.534	4.277	390.061
13:32:08.535	4.278	385.531
13:32:08.536	4.279	381.039
13:32:08.537	4.28	376.596
13:32:08.538	4.281	372.183
13:32:08.539	4.282	367.765
13:32:08.540	4.283	363.3
13:32:08.541	4.284	358.759
13:32:08.542	4.285	354.12
13:32:08.543	4.286	349.362
13:32:08.544	4.287	344.462
13:32:08.545	4.288	339.397
13:32:08.546	4.289	334.153
13:32:08.547	4.29	328.722
13:32:08.548	4.291	323.104
13:32:08.549	4.292	317.294
13:32:08.550	4.293	311.29
13:32:08.551	4.294	305.084
13:32:08.552	4.295	298.679
13:32:08.553	4.296	292.086
13:32:08.554	4.297	285.33
13:32:08.555	4.298	278.442
13:32:08.556	4.299	271.454
13:32:08.557	4.3	264.398
13:32:08.558	4.301	257.302
13:32:08.559	4.302	250.192
13:32:08.560	4.303	243.094
13:32:08.561	4.304	236.032
13:32:08.562	4.305	229.027
13:32:08.563	4.306	222.102
13:32:08.564	4.307	215.278
13:32:08.565	4.308	208.578
13:32:08.566	4.309	202.021
13:32:08.567	4.31	195.619
13:32:08.568	4.311	189.365
13:32:08.569	4.312	183.236
13:32:08.570	4.313	177.202
13:32:08.571	4.314	171.239
13:32:08.572	4.315	165.345
13:32:08.573	4.316	159.533
13:32:08.574	4.317	153.826
13:32:08.575	4.318	148.25
13:32:08.576	4.319	142.829
13:32:08.577	4.32	137.584
13:32:08.578	4.321	132.524
13:32:08.579	4.322	127.649
13:32:08.580	4.323	122.956
13:32:08.581	4.324	118.444
13:32:08.582	4.325	114.115
13:32:08.583	4.326	109.969
13:32:08.584	4.327	106.006
13:32:08.585	4.328	102.226
13:32:08.586	4.329	98.6253
13:32:08.587	4.33	95.2008
13:32:08.588	4.331	91.9444
13:32:08.589	4.332	88.8466
13:32:08.590	4.333	85.9011
13:32:08.591	4.334	83.1085
13:32:08.592	4.335	80.4736
13:32:08.593	4.336	77.9981
13:32:08.594	4.337	75.6755
13:32:08.595	4.338	73.4938
13:32:08.596	4.339	71.4436
13:32:08.597	4.34	69.5239
13:32:08.598	4.341	67.7405
13:32:08.599	4.342	66.0991
13:32:08.600	4.343	64.5979
13:32:08.601	4.344	63.2262
13:32:08.602	4.345	61.9634
13:32:08.603	4.346	60.7753
13:32:08.604	4.347	59.6145
13:32:08.605	4.348	58.4323
13:32:08.606	4.349	57.192
13:32:08.607	4.35	55.8756
13:32:08.608	4.351	54.4831
13:32:08.609	4.352	53.0327
13:32:08.610	4.353	51.5596
13:32:08.611	4.354	50.1088
13:32:08.612	4.355	48.7238
13:32:08.613	4.356	47.4375
13:32:08.614	4.357	46.2706
13:32:08.615	4.358	45.2376
13:32:08.616	4.359	44.3506
13:32:08.617	4.36	43.6159
13:32:08.618	4.361	43.0329
13:32:08.619	4.362	42.5989
13:32:08.620	4.363	42.3149
13:32:08.621	4.364	42.1831
13:32:08.622	4.365	42.2014
13:32:08.623	4.366	42.3601
13:32:08.624	4.367	42.6423
13:32:08.625	4.368	43.0246
13:32:08.626	4.369	43.4789
13:32:08.627	4.37	43.9736
13:32:08.628	4.371	44.4805
13:32:08.629	4.372	44.9837
13:32:08.630	4.373	45.4847
13:32:08.631	4.374	45.9978
13:32:08.632	4.375	46.5369
13:32:08.633	4.376	47.1004
13:32:08.634	4.377	47.6634
13:32:08.635	4.378	48.1824
13:32:08.636	4.379	48.607
13:32:08.637	4.38	48.8905
13:32:08.638	4.381	48.9929
13:32:08.639	4.382	48.8814
13:32:08.640	4.383	48.5331
13:32:08.641	4.384	47.9403
13:32:08.642	4.385	47.1128
13:32:08.643	4.386	46.0757
13:32:08.644	4.387	44.8655
13:32:08.645	4.388	43.5295
13:32:08.646	4.389	42.1217
13:32:08.647	4.39	40.6935
13:32:08.648	4.391	39.2909
13:32:08.649	4.392	37.961
13:32:08.650	4.393	36.7566
13:32:08.651	4.394	35.7292
13:32:08.652	4.395	34.9175
13:32:08.653	4.396	34.3404
13:32:08.654	4.397	33.9987
13:32:08.655	4.398	33.8784
13:32:08.656	4.399	33.9517
13:32:08.657	4.4	34.1777
13:32:08.658	4.401	34.5072
13:32:08.659	4.402	34.894
13:32:08.660	4.403	35.305
13:32:08.661	4.404	35.7248
13:32:08.662	4.405	36.1523
13:32:08.663	4.406	36.5918
13:32:08.664	4.407	37.0435
13:32:08.665	4.408	37.5015
13:32:08.666	4.409	37.9574
13:32:08.667	4.41	38.4058
13:32:08.668	4.411	38.8449
13:32:08.669	4.412	39.2727
13:32:08.670	4.413	39.6839
13:32:08.671	4.414	40.0701
13:32:08.672	4.415	40.4203
13:32:08.673	4.416	40.7214
